0.173679717102968,-0.104946734126121
0.175868314423929,-0.148520997774632
0.177692540837836,-0.139727097360641
0.179206647109936,-0.150269134446653
0.18057075392913,-0.132612929345162
0.18064296408045,-0.159268247681173
0.182027068337019,-0.148057355079682
0.183052139748432,-0.178740993728193
0.184631336246827,-0.182837718314202
0.186861664495046,-0.136177606962713
0.189734980037744,-0.147525308111222
0.191445204182866,-0.104087853009733
0.193554792913483,-0.140411140095742
0.195034517757231,-0.142896536556754
0.197028866270588,-0.141353612705262
0.19825363956906,-0.148672993541274
0.19978080084967,-0.144713077502283
0.201279436211727,-0.139947497400794
0.202783483772842,-0.151295198549303
0.203881894469837,-0.157808915322814
0.205434721571314,-0.147403686783823
0.206656182957681,-0.149889083244834
0.208579227765887,-0.145929167205844
0.210110900309287,-0.140357923041854
0.212221699604299,-0.136398007002864
0.213679716430444,-0.159025005026375
0.215713320732232,-0.128478174924883
0.216381500116833,-0.150299508885895
0.216477623486357,-0.164064202221904
0.216029824743185,-0.144796668995415
0.21529832516898,-0.139225424831424
0.214450094148552,-0.136071172854935
0.213943789503599,-0.150641530253445
0.214243348738623,-0.149904270464455
0.214706558486341,-0.146750018487964
0.215824370284841,-0.147624086823975
0.21713100959799,-0.188781358284985
0.217417980332037,-0.138092926620996
0.217579066056318,-0.136550002769505
0.217903802293294,-0.147897703918016
0.218933494584959,-0.143132123816526
0.220529669420568,-0.128698574965036
0.221194295183912,-0.137629283926046
0.221644916430654,-0.144948664762056
0.221088457599271,-0.137766092473066
0.219827042713201,-0.145085473309077
0.218993636860334,-0.141931221332586
0.218311293019185,-0.141999625606096
0.21761636067706,-0.137234045504606
0.21672001231931,-0.146164754465617
0.215257181417615,-0.150261479051626
0.214600014578419,-0.136633594262637
0.21403096724606,-0.151203951661146
0.21430534947913,-0.142410051247157
0.213736302146771,-0.156174744583167
0.21295325029781,-0.151409164481677
0.213416460045529,-0.138586943755187
0.213149536736607,-0.141072340216198
0.213310622460888,-0.155642697614707
0.212049207574818,-0.143626140950718
0.212122173792263,-0.150945521786727
0.212220317011662,-0.171961191685238
0.211437265162701,-0.151082330333747
0.210528328303974,-0.133426125232258
0.209694922451107,-0.140745506068266
0.208571981075779,-0.156927191591776
0.207902225735607,-0.165052236490285
0.207786364438404,-0.154647007951296
0.207871919156826,-0.139407795037306
0.207479110838138,-0.146727175873316
0.206595350981365,-0.151629564521826
0.205573117613849,-0.141224335982836
0.204462764739498,-0.142904068381346
0.202773340820224,-0.156668761717356
0.201360863922435,-0.152708845678366
0.200388984558826,-0.161639554639376
0.199253454682521,-0.148817333912886
0.198759938356021,-0.152914058498897
0.197913944002178,-0.144120158084907
0.196904299135638,-0.239256921733417
0.195919831271053,-0.153924935381926
0.195149367923068,-0.176551933405437
0.194290785068248,-0.158090064241447
0.19353291022124,-0.165409445077457
0.192938685886928,-0.150170232163467
0.19254587756824,-0.162323597374477
0.191485878697795,-0.145473056335487
0.190539176336138,-0.158432085608998
0.189542119970576,-0.146415528945008
0.188973072638217,-0.160985886343518
0.188227786292185,-0.153803314054527
0.188099336494006,-0.164345351140538
0.188008652198756,-0.154745786664048
0.187741728889834,-0.156425519062558
0.187940580117045,-0.154882595211068
0.187963192330584,-0.161396311984578
0.188778880105646,-0.156630731883089
0.189317620859224,-0.158310464281599
0.190334724649912,-0.159184532617608
0.191087469920092,-0.165698249391119
0.192268224223474,-0.157710013039629
0.19427981959131,-0.155361425125639
0.196178118450357,-0.154624165336649
0.19651544318831,-0.163554874297659
0.196550643902826,-0.16201195044617
0.196245955090974,-0.16772000315718
0.197464474897286,-0.150869462118189
0.19849416718895,-0.1501322023292
0.200694590071435,-0.15503459097771
0.202429238417786,-0.16396529993872
0.203962470748513,-0.16886768858723
0.205646765090958,-0.15282281161074
0.20734364793438,-0.144834575259251
0.208524402237763,-0.15537661234526
0.208584779954231,-0.18203193068127
0.210017304277145,-0.16840404589228
0.210996642564903,-0.15397049704079
0.2108807812677,-0.1572615575643
0.210639034960731,-0.150884649337811
0.210271403643997,-0.163038014548821
0.209286935779411,-0.156661106322331
0.209057777973418,-0.155923846533341
0.207808951588324,-0.160020571119351
0.208410634846785,-0.163311631642861
0.20738840147927,-0.159351715603871
0.206567584127379,-0.161031448002381
0.20632583782041,-0.169156492900891
0.20619738802223,-0.170030561236902
0.205817168204519,-0.168487637385412
0.205776837913175,-0.162110729158922
0.205384029594488,-0.154928156869932
0.203757548180097,-0.157413553330942
0.20215624376766,-0.156676293541952
0.202216621484128,-0.172857979065462
0.202390295709386,-0.168092398963973
0.203243748987378,-0.165743811049982
0.203807666742909,-0.169034871573493
0.204459704005277,-0.167491947722002
0.204683732234441,-0.169977344183013
0.204907760463604,-0.167628756269022
0.204968138180073,-0.164474504292533
0.205607586941464,-0.172599549191043
0.205743495663792,-0.169445297214553
0.206408121427136,-0.170319365550563
0.206795800168995,-0.166359449511573
0.20654146536105,-0.168039181910083
0.205997595030643,-0.159245281496094
0.205768437224651,-0.162536342019603
0.204595141845417,-0.170661386918114
0.202905717926143,-0.153810845879124
0.201732422546909,-0.158713234527634
0.200420653656932,-0.170866599738644
0.198706052735705,-0.162072699324654
0.197633465364283,-0.160529775473164
0.196246165468447,-0.152541539121674
0.194909219576518,-0.143747638707685
0.194012871218768,-0.156706667981195
0.193594885898127,-0.166443041004705
0.193227254581393,-0.151203828090715
0.192683384250986,-0.159328872989225
0.191182787846361,-0.155368956950235
0.190689271519861,-0.164299665911245
0.189188675115236,-0.149866117059755
0.188342680761392,-0.162825146333265
0.1865021948304,-0.161282222481775
0.184346996374994,-0.151682658005285
0.181562372870759,-0.151751062278796
0.180074364967111,-0.157459114989806
0.17760445398729,-0.118855644263316
0.1751723085104,-0.155984595411826
0.171770848458314,-0.144773702810336
0.169162463967751,-0.150481755521346
0.166214189950821,-0.142493519169856
0.164449235025689,-0.159480868755867
0.162633926096649,-0.133768023029376
0.16045355063929,-0.167674317927886
0.158033993663376,-0.159686081576397
0.156445277751915,-0.158948821787407
0.155120920360962,-0.164656874498416
0.153444084942665,-0.162308286584427
0.151767249524368,-0.151903058045437
0.151311498700797,-0.167279079506447
0.150276676832305,-0.116590647842457
0.14998457652143,-0.160970575553468
0.148899400649032,-0.155399331389478
0.148859070357688,-0.164330040350488
0.149120864089782,-0.164398444623998
0.149370069320899,-0.160438528585008
0.149568920548109,-0.160506932858518
0.149956599289969,-0.162186665257028
0.149576379472258,-0.165477725780538
0.149838173204352,-0.163129137866548
0.148186514788008,-0.151918245265059
0.147529347948812,-0.162460282351069
0.147325367144773,-0.156889038187078
0.148355059436437,-0.158568770585589
0.149334397724195,-0.142523893609099
0.149696899464101,-0.147426282257609
0.149706923176664,-0.158773983406119
0.149502942372624,-0.166899028304629
0.149462612081281,-0.16374477632814
0.149724405813374,-0.162201852476649
0.149520425009335,-0.153407952062659
0.149543037222874,-0.154282020398669
0.149603414939343,-0.165629721547179
0.148895894096241,-0.15361316488319
0.148427554771694,-0.1512645769692
0.148273927971561,-0.160195285930209
0.148007004662639,-0.15945802614122
0.148495391412311,-0.16355475072723
0.149046720666866,-0.16362315500074
0.149220394892124,-0.16288589521175
0.149368892115428,-0.169399611985261
0.15022234539342,-0.16946801625877
0.150509316127467,-0.169536420532281
0.150934760372256,-0.16718783261829
0.151272085110209,-0.162422252516801
0.151181400814959,-0.15040569585281
0.151065539517756,-0.163364725126321
0.151377687253756,-0.158599145024831
0.152017136015146,-0.162695869610842
0.153021651304857,-0.128926383259351
0.15379957357699,-0.160415685970362
0.155131389892092,-0.161289754306371
0.156286967193521,-0.162969486704882
0.157933496033037,-0.164649219103392
0.159366020355951,-0.164717623376902
0.160748190674959,-0.127725480775412
0.162382131013498,-0.172911072548922
0.164355960878404,-0.156060531509932
0.165977312715966,-0.152906279533442
0.16788820007599,-0.167476636931952
0.170856521518044,-0.165128049017963
0.172654112369278,-0.150694500166473
0.174627942234185,-0.150762904439983
0.176475887089325,-0.163721933713493
0.178059473423958,-0.202462212987003
0.179932595281052,-0.158219093823013
0.181428062108848,-0.151036521534023
0.183112356451294,-0.150299261745033
0.184544880774208,-0.155201650393543
0.186153644110794,-0.156075718729553
0.186830858375114,-0.152921466753063
0.187117829109161,-0.168297488214073
0.187354445839301,-0.171588548737584
0.186986814522567,-0.158766328011093
0.187349316262473,-0.158834732284604
0.187019450448668,-0.158903136558114
0.187155359170996,-0.151720564269124
0.186422661325942,-0.152594632605134
0.185778082987723,-0.158302685316144
0.183232641002043,-0.156759761464654
0.182260761638434,-0.157633829800665
0.181805010814863,-0.164953210636675
0.181437379498129,-0.144880013347685
0.180541031140379,-0.157839042621195
0.181369307416418,-0.170798071894705
0.180762494581128,-0.147502218355715
0.179790615217519,-0.151598942941725
0.178239664808988,-0.157306995652735
0.176462121382878,-0.146901767113745
0.175037055984113,-0.164694780762255
0.173397986068745,-0.119645997535766
0.171607854141659,-0.180944870559275
0.16946524418723,-0.127033782645286
0.1673226342328,-0.140798475981296
0.165331086290089,-0.127170591192306
0.162684936296597,-0.128044659528315
0.160328321825565,-0.153894313801826
0.157732525835979,-0.158796702450337
0.155740977893268,-0.129055536411346
0.153573190936885,-0.135569253184856
0.151443169483432,-0.129192344958366
0.148897727497753,-0.144568366419377
0.146604055531604,-0.143025442567887
0.145204167134792,-0.139871190591397
0.143980517751651,-0.150413227677407
0.142706514364604,-0.136785342888417
0.141961228018573,-0.141687731536927
0.140938994651057,-0.152229768622937
0.139790876273776,-0.125711258833947
0.140518444542002,-0.144309936544957
0.138300303581713,-0.168548262693468
0.136661233666346,-0.181507291966978
0.134971809747072,-0.248445813427988
0.133055792810221,-0.244485897388998
0.131341191888994,-0.278392192287508
0.129513294458978,-0.360638330936018
0.127559512019197,-0.388099313334528
0.125429490565744,-0.423616936358038
0.123198761104478,-0.501834754694048
0.120968031643212,-0.534935385530058
0.118649182675111,-0.580120977303568
0.116431041714822,-0.611610280014579
0.114842325803361,-0.703524387413089
0.113077370878228,-0.696341815124098
0.111450889463837,-0.710912172522609
0.110340536589485,-0.768182725233619
0.108776997679978,-0.688490387319629
0.107779941314415,-0.811019729093139
0.105662508361938,-0.773221922429149
0.103670960419227,-0.80148856889016
0.101868239991165,-0.749188809101169
0.100216581574821,-0.700111705562179
0.0991817597063288,-0.79605413327319
0.0979832873251412,-0.7582563266092
0.0975275365015708,-0.714013207445209
0.0967067191496801,-0.64560016640622
0.096301322330016,-0.71173302380473
0.0960721645240238,-0.62237271714074
0.0957297102092424,-0.64580537922675
0.0953117248886018,-0.61848120537526
0.0953595141040939,-0.591157031523771
0.0947275242668516,-0.563027193609781
0.09402000342375,-0.53248036350829
0.095049695715414,-0.512407166219301
0.0945813563908671,-0.446411117367811
0.0937857160409295,-0.539130888828821
0.0931663147046638,-0.424794996227331
0.0925846788713278,-0.464340939563341
0.0918645695272496,-0.409624187586852
0.0915472922144214,-0.397607630922862
0.091381076913312,-0.414594980508871
0.0908372065829057,-0.378408501969882
0.0905828717749603,-0.360752296868392
0.0904921874797103,-0.343901755829402
0.0900238481551633,-0.324634222602912
0.0895555088306164,-0.298115712813922
0.089301174022671,-0.276431187399932
0.0885055336727335,-0.257969318235943
0.087823189831585,-0.260454714696952
0.0879465100529365,-0.225073900220462
0.0877299407479208,-0.193721406056472
0.0873119554272801,-0.201040786892483
0.0869317356095691,-0.198692198978493
0.0868914053182253,-0.194732282939503
0.0866370705102799,-0.183521390338013
0.0860554346769439,-0.182784130549023
0.0853605023348188,-0.174795894197533
0.084199795456561,-0.141026407846043
0.0834419206095531,-0.130621179307053
0.0826840457625452,-0.194337044518063
0.0813974538745217,-0.132369315979074
0.0809542915519279,-0.0558996343150838
0.0807125452449591,-0.0946399135885935
0.0780286297485372,-0.062481755362104
0.0784540739933261,-0.0689954721356137
0.0775829026375292,-0.0545619232841245
0.0756794742016541,-0.0369057181826341
0.0758279714249588,-0.0555043958936448
0.0762156501668181,-0.0201235814171542
0.0760620233666852,0.00720059243433557
0.0759209850675289,-0.0500699602766754
0.0752764067293101,-0.0114664895501853
0.0745940628881616,-0.0171745422611948
0.0740250155558022,-0.0389958762222054
0.0738965657576224,-0.0229509992457151
0.0738184699633489,-0.0447723332067256
0.0736774316641926,-0.00455753435523565
0.0737503978816379,-0.0296015245662454
0.0729673460326769,-0.00388867883975563
0.0727507767276612,0.00732221376173464
0.0732013979744033,-0.0426973623867755
0.0730351826732939,-0.0403487744727855
0.0735613349258954,-0.0355831943712961
0.0748679742390438,-0.0638498408323058
0.0754696574975046,0.0190651533316842
0.0759958097501061,-0.0438450478168257
0.0762324264802467,0.0205396729096636
0.0766326937230825,-0.0488158407388461
0.0766804829385747,-0.018269010637356
0.0771059271833637,0.0034155147766331
0.0769397118822542,0.00898675894062306
0.0773903331289964,-0.0136402390828866
0.0778157773737854,0.0338255363311029
0.0788454696654494,0.0031418976825931
0.0791576174014493,0.032883063721583
0.0801117786872539,0.00461641726057288
0.0814184180004023,-0.00673128388793715
0.0824103447891366,0.0157589055885528
0.0828106120319725,-0.00525676430995775
0.0832738217796912,0.00514846422903215
0.083359376498113,0.00346873183052232
0.0843009492829411,-0.00062799275548775
0.0851795795628863,-0.00875303765399849
0.0863477453652925,-0.00801577786500834
0.0866850701032456,0.0112517553614822
0.0880420634203002,-0.00976391453702852
0.0891221097158705,-0.0235286078730384
0.0897741469782376,-0.0308479887090487
0.0897589936888469,-0.012386119545059
0.0882080432803156,-0.0172885081935686
0.0863675573493233,-0.0584457796545789
0.0845144829173545,-0.0109800042405891
0.082623642982456,-0.00702008820159883
0.0806195065387685,-0.0280357581001088
0.0789930251243778,-0.011185217061119
0.0773917207119402,0.0032483317903706
0.075060283242862,-0.0242126506081392
0.0731316778050338,0.00150019511835053
0.0714044883828307,0.00707143928234027
0.0699290689801587,-0.0187782149911698
0.068793539103854,0.0335215447978206
0.0677713057363383,0.01089454677431
0.0666735413629632,0.0108261425008001
0.0655380114866584,0.0437899647897903
0.0649563756533225,-0.0167032441712204
0.0636068412604161,0.0049812812427702
0.0622195413645801,0.0822566269692598
0.0619903835585879,0.00242748050824948
0.0607415571734941,0.0450592715472397
0.06033616035383,0.00712465633622938
0.0603335955654158,0.0449224630002191
0.0586567601471189,-0.0155707459607913
0.0569547477268688,-0.0011371971093011
0.0552275583046657,0.00846236736718886
0.0535507228863687,-0.0214156072188212
0.0529187330491265,-0.0303463161798317
0.0527273407460639,-0.0183297595158411
0.051566633867806,-0.0240378122268514
0.0506576970090794,-0.00315895087536172
0.0494340476259387,-0.0233689567113717
0.048613230274048,-0.0194090406723815
0.0479057094309464,-0.0549266636958921
0.0473996046034698,-0.00907221640690259
0.0472082123004072,-0.00511230036791199
0.0464377489524228,-0.159062540578922
0.0456546971034618,-0.0487549682899324
0.0455010703033289,-0.0584913413134428
0.0443655404270241,0.00105939503804686
0.0443881526405631,-0.0973000248604621
0.0439575788189459,-0.0820608119464725
0.0441941955490865,-0.0531253099699831
0.0436377367177036,-0.0765579720559935
0.0434841099175707,-0.074209384142003
0.0435067221311097,-0.0557475149780127
0.0452917244813675,-0.00747607550152329
0.0448233851568205,-0.113086471962533
0.0450851788889142,-0.0897906184235433
0.0451455566053829,-0.0721344133220532
0.0455710008501719,-0.0230573097830636
0.0453796085471093,-0.0956354796815735
0.0455406942713905,-0.0618659933300836
0.0458402535064139,-0.0707967022910939
0.0470461848117498,-0.0483065128146043
0.0479751690956012,-0.0749618311506142
0.0483754363384372,-0.0532773057366239
0.0480707475265855,-0.178223639697634
0.0476401737049683,-0.0566367705336447
0.0473480733940932,-0.0365635732446549
0.0480126991574369,-0.113975727518165
0.0485262629090619,-0.122906436479175
0.0492412426763118,-0.0512707391901845
0.0495533904123117,-0.119014924713695
0.0516782822889366,-0.0755774696122053
0.0547599002397803,-0.0909534910732149
0.0581939962179678,-0.120831465659225
0.0632142433192021,-0.0838393230577354
0.0673155298491473,-0.0879360476437452
0.0712405773654207,-0.105729061292255
0.0751278593787644,-0.0816275436907654
0.0790654953960143,-0.109894190151776
0.0829276004074049,-0.0865983366127853
0.0857322713367642,-0.0721647877612961
0.0882474067436626,-0.0891521373473056
0.0916563257198969,-0.0868035494333163
0.0944987621521859,-0.0763983208943263
0.0965481230229514,-0.104664967355336
0.0981442978585608,-0.0725068091288464
0.0977640780408498,-0.162003924339857
0.0990958943559512,-0.0807002583008662
0.101850211281404,-0.0783516703868766
0.104491231698068,-0.0888937074728868
0.105999287026842,-0.0277316429963967
0.109445971506006,-0.130925047269907
0.112212876932435,-0.0890989202934172
0.115357437388162,-0.0770823636294272
0.118187285319474,-0.0860130725904375
0.120614301219537,-0.113474054988947
0.123242733135224,-0.0748705842624576
0.125493510021615,-0.0918579338484677
0.126145547283982,-0.0887036818719778
0.126306633008263,-0.0621851720829876
0.126769842755982,-0.075144201356498
0.127321172010536,-0.0905202228175078
0.127998386274857,-0.0930056192785176
0.128146883498161,-0.0777664063645283
0.128106553206817,-0.0568875450130383
0.128179519424263,-0.104490128974049
0.128743437179794,-0.0215751348100585
0.129496182449973,-0.0732060390835683
0.13018598521527,-0.104695341794579
0.130951318986426,-0.0660918710680889
0.131993599779067,-0.115305783154099
0.132205039507254,-0.0581720389901087
0.132441656237395,-0.095300990138619
0.131872608905036,-0.0897297459746298
0.131932986621504,-0.117190728373139
0.131829713825278,-0.0399153826466491
0.13143690550659,-0.119744529107659
0.130200667622473,-0.135926214631169
0.131368833424879,-0.0804037985921797
0.13076202058959,-0.13525735911569
0.130734278799223,-0.0749009587017001
0.130631006002996,-0.15150744891271
0.13081726872923,-0.0653697984987203
0.130336340903707,-0.0573815621472302
0.129792470573301,-0.10095582579574
0.128669529197972,-0.0921619253817509
0.127294817803113,-0.0833680249677609
0.126801301476613,-0.0769911167412703
0.126635086175503,-0.0931728022647809
0.126645109888066,-0.0626259721632912
0.126629956598675,-0.143260782686801
0.125909847254597,-0.107074304147811
0.125013498896847,-0.0724991537338212
0.124129739040073,-0.157162284569832
0.114270377987011,-0.0460490482183413
0.101226126186878,-0.170189718116852
0.0896924945039326,-0.137225895827861
0.0792792394079013,-0.082509143851372
0.0693191703470263,-0.126083407499882
0.0601899423506043,-0.079423296148392
0.052080382933284,-0.123803223859402
0.0435176374808073,-0.115009323445412
0.0348919495234479,-0.106215423031422
0.0272481646422603,-0.134482069492432
0.020057565796229,-0.0958785987659424
0.0135089805000024,-0.0959470030394526
0.00672121368522109,-0.156440212000463
0.000185216889971043,-0.0541892803364726
-0.00495345629688057,-0.116293817422483
-0.0101047179847088,-0.0913866357584931
-0.0128138104830838,-0.111596641594503
-0.0178769526640761,-0.0955517646180133
-0.0233177498743652,-0.0674219267040235
-0.0286452505758653,-0.0972999012900334
-0.0338720432695529,-0.0941456493135432
-0.0408360490980061,-0.0974367098370533
-0.0467552093454045,-0.0805861687980641
-0.052359657068389,-0.124966096509074
-0.0572213832337563,-0.108115555470084
-0.0617054543698266,-0.158135131618594
-0.0655726889580454,-0.0566898640171042
-0.0689112065052486,-0.094624479228115
-0.071179701469444,-0.0568266725641244
-0.0742035064922331,-0.0987896080876343
-0.076371293448616,-0.0714654342361444
-0.0786523769137879,-0.0683111822596547
-0.0804928628447802,-0.0434040005956648
-0.0821948752650302,-0.057974357994175
-0.0837206486716084,-0.0362898325801848
-0.085435249592835,-0.0750301118536953
-0.0876659790541007,-0.0396492973772051
-0.0899974165231789,-0.0630819594632145
-0.0918504909551477,-0.0695956762367254
-0.0942322824281321,-0.0438828305102357
-0.0974323264645931,-0.0568418597837458
-0.0997008214287885,-0.0254893656197553
-0.10084893980607,-0.0779259339557655
-0.101871173173586,-0.0312658226042763
-0.102843052537195,-0.0184436018777859
-0.103600927384203,-0.0700745061512961
-0.103842673691172,-0.0661145901123059
-0.103971123489351,-0.0476527209483165
-0.104603113326594,-0.061417414284326
-0.104026607070086,0.00538429862966328
-0.104293530379008,-0.0720278556438462
-0.104384214674258,-0.0511489942923568
-0.104714080488063,-0.0560513829408666
-0.104754410779406,-0.0835123653393768
-0.104165316021922,-0.063439168050387
-0.103060092724399,-0.0570622598238972
-0.101942280925899,-0.0708269531599072
-0.101453894176227,-0.042697115245917
-0.10076409141093,-0.0894940351444273
-0.100237939158329,-0.0839227909804381
-0.0997117869057272,-0.0783515468164476
-0.0990471611423835,-0.0655293260899578
-0.0983825353790398,-0.109103589738468
-0.097692732613743,-0.0938643768244781
-0.088002151650204,-0.0850704764104879
-0.0754162154620556,-0.0714425916214982
-0.0636107663344541,-0.0723166599575082
-0.0528753397898604,-0.107834282981019
-0.0436757103644074,-0.0966233903795285
-0.0331920538393449,-0.106359763403038
-0.0251631550047122,-0.0870922301765486
-0.0170209596612904,-0.0887719625750588
-0.00880323331200918,-0.056613804348569
0.0012020601759439,-0.117912677372079
0.00855117995784228,-0.0873658472705893
0.0166052557944281,-0.097102220294099
0.0238662560694906,-0.0842799995676091
0.031328672360178,-0.0770974272786195
0.0376455350619983,-0.0989187612396294
0.0447302963233888,-0.11268345457564
0.0510093935222794,-0.11114053072415
0.0570367207016387,-0.0668974115601598
0.0622709723194746,-0.0854960892711699
0.0676059319451229,-0.11698539198218
0.0734696086117869,-0.11624813219319
0.0795598782960291,-0.0784503255291996
0.0852095504460915,-0.0873810344902105
0.0907836915902946,-0.112425024701221
0.0956780536817633,-0.112493428974731
0.0997541632097554,-0.073084294185741
0.103628856722123,-0.0989339484592509
0.107793085756951,-0.126394930857761
0.111718133273224,-0.0845688038812711
0.11651178735688,-0.107195801904781
0.120688604892685,-0.0919565889907911
0.124450001896263,-0.116194915139301
0.127506442845153,-0.115457655350311
0.130902773320411,-0.110692075248821
0.134122864781997,-0.0753112607723316
0.136940124212333,-0.162391383795842
0.140097273169036,-0.125399241194352
0.142813824591559,-0.0779334657803621
0.145731792029708,-0.130370034116371
0.148511285957114,-0.0982118758898819
0.150825005348387,-0.140174811413393
0.151993171150793,-0.102377004749402
0.154105474526442,-0.139505955897912
0.155940830880606,-0.108959125796423
0.157146762185942,-0.127557803507432
0.158377870493231,-0.123597887468442
0.159017319254621,-0.126083283929452
0.158901457957418,-0.135013992890463
0.15854641514166,-0.147973022163973
0.157952190807348,-0.113397871749983
0.15796221451991,-0.150526822898493
0.157657525708058,-0.143344250609503
0.157151420880582,-0.147440975195513
0.156632727552129,-0.129784770094023
0.155446843671918,-0.103266260305033
0.154449787306355,-0.126698922391044
0.153767443465206,-0.142074943852054
0.1548349012598,-0.150199988750564
0.154127380416699,-0.135766439899074
0.153684218094105,-0.185786016047584
0.152800458237331,-0.117372975008594
0.152067760392276,-0.144028293344604
0.151674952073589,-0.171489275743114
0.151005196733417,-0.153027406579125
0.150058494371761,-0.174848740540135
0.149136969012058,-0.123354644813645
0.148404271167003,-0.165317580337154
0.1474827458073,-0.179082273673165
0.146636751453456,-0.144507123259175
0.144481552998049,-0.170356777532685
0.144013213673503,-0.162368541181195
0.143607816853838,-0.154380304829705
0.143202420034174,-0.169756326290716
0.140493327535799,-0.131152855564225
0.140427820242502,-0.168281806712735
0.13979583040526,-0.142568960986245
0.139037955558252,-0.159556310572256
0.138796209251283,-0.130620808595766
0.138038334404275,-0.162915775369276
0.136814685021135,-0.116255664017786
0.13608198717608,-0.154190279228797
0.135789886865205,-0.097056535064806
0.135749556573861,-0.120489197150816
0.135243451746385,-0.146338851424326
0.134548519404259,-0.150435576010336
0.13394170656897,-0.077994214658846
0.133762902766884,-0.116734493932357
0.133344917446244,-0.123248210705867
0.132398215084587,-0.103980677479377
0.13233270779129,-0.143526620815387
0.131751071957954,-0.0992835016513974
0.130565188077743,-0.0647083512374076
0.129291184690697,-0.0631654273859178
0.128394836332946,-0.0914320738469275
0.127221540953712,-0.0890834859329377
0.126312604094985,-0.0480630230189474
0.125491786743095,-0.0674673647924577
0.124482141876556,-0.106207644065968
0.122918602967048,-0.0547135483394781
0.12172013058586,-0.0781462104254886
0.120332830690024,-0.0516277006364981
0.119209889314696,-0.0307488392850082
0.117281283876868,-0.0525701732460184
0.116057634493727,-0.0824481478320285
0.115690003176993,-0.0680145989805391
0.115813323398344,-0.0632490188790484
0.11464002801911,-0.064123087215059
0.113869564671125,-0.0891670774260691
0.112683680790914,-0.0505636066995789
0.111787332433164,-0.0184054484730886
0.111684059636938,-0.117570532434099
0.111379370825086,-0.105553975770109
0.110898442999562,-0.0919260909811198
0.110681873694547,-0.0823265265046292
0.109357516303594,-0.0614476651531402
0.108360459938031,-0.0550707569266498
0.108143890633015,0.0238159169248397
0.10785179032214,-0.13255131547367
0.107874402535679,-0.0931421806846803
0.107431240213085,-0.08757093652069
0.10673630787096,-0.0755543798567005
0.105550423990749,-0.0796511044427102
0.105409385691593,-0.105500758716221
0.104777395854351,-0.0588406473647308
0.10443494153957,-0.0854959657007405
0.104180606731624,-0.0791190574742505
0.103435320385593,-0.100134727372761
0.104162888653819,-0.0816728582087707
0.104198089368335,-0.0664336452947811
0.104094816572108,-0.0503887683182913
0.104054486280764,-0.139080219466801
0.103699443465007,-0.0666388581153117
0.103054865126788,-0.115047106138822
0.102586525802241,-0.0869172682248314
0.102105597976717,-0.103098953748341
0.101473608139475,-0.107195678334352
0.101055622818834,-0.112098066982862
0.100851642014795,-0.119417447818872
0.100647661210756,-0.106595227092382
0.0999023748647248,-0.0937730063658923
0.0991822655206467,-0.113983012201902
0.0977823771238341,-0.124525049287912
0.0971126217836622,-0.0448327113739222
0.0967701674688808,-0.187503654709932
0.0959493501169901,-0.115867957420943
0.0954054797865838,-0.107074057006952
0.0942573614093025,-0.107142461280463
0.0936757255759665,-0.0983485608664733
0.0926157267055211,-0.153202121389982
0.091895617361443,-0.158910174100993
0.0905964369724429,-0.133197328374503
0.0895112611000444,-0.102650498273014
0.0890429217754975,-0.0946622619215234
0.0885494054489974,-0.101981642757533
0.0886223716664427,-0.124608640781044
0.0885442758721691,-0.0964788028670543
0.0890830166257472,-0.150526699328064
0.0888664473207315,-0.0821136582890739
0.088473639002044,-0.139384211000084
0.0883829547067939,-0.133812966836094
0.0880782658949423,-0.0944038320471045
0.0881008781084813,-0.176649970695614
0.0881990213278797,-0.131601187469125
0.0880705715296999,-0.147782872992635
0.0871616346709733,-0.0809811600786446
0.0866555298434966,-0.131000736227154
0.085948009000395,-0.109316210813165
0.0850013066387387,-0.0989109822741749
0.0845203788132152,-0.197270402172685
0.0843415750111292,-0.0974364626961945
0.0834326381524026,-0.170014632594705
0.0829894758298088,-0.0822656540557157
0.0831253845521368,-0.180625073954226
0.0829465807500508,-0.0944874235402351
0.0814585728464023,-0.133227702813746
0.0806755209974413,-0.134907435212256
0.0794518716143006,-0.110805917610766
0.0775987971823318,-0.135044243759276
0.0763751477991911,-0.105303077720287
0.075566918948277,-0.186743552306297
0.0748468096041988,-0.0764359800173068
0.0732455051917613,-0.150625478040816
0.0719463248027612,-0.124106968251827
0.0708107949264565,-0.135454669400337
0.0697507960560111,-0.152442018986347
0.0673564160820501,-0.134785813884857
0.0660194701901203,-0.164663788470867
0.0643426347718234,-0.0672468411818777
0.0621496708134875,-0.134991026705387
0.0602084768746827,-0.166480329416397
0.058380579444667,-0.143990139939908
0.0552057124101592,-0.111026317650917
0.0541583020406903,-0.106260737549427
0.0521289885950497,-0.127276407447938
0.049495427102534,-0.116871178908948
0.0484606052340417,-0.101631965994958
0.0458270437415261,-0.216104667143468
0.0427528847148307,-0.0921008057919779
0.0400815577193853,-0.114727803815488
0.0371710492053853,-0.153468083088998
0.0346256072197055,-0.0971400029875083
0.0319542802242602,-0.0972084072610185
0.0301893252991273,-0.200401811534529
0.0278075338261428,-0.0925112314330384
0.0257908088814787,-0.135279831019049
0.0236733759290021,-0.108761321230059
0.0220972485185176,-0.137027967691069
0.0196525145406504,-0.0734489110270791
0.017786851607705,-0.0872136043630897
0.0156316531522987,-0.152540797699099
0.0138289327242361,-0.0688201394726095
0.0115856147619939,-0.13656432499612
0.00990877934369694,-0.108434487082129
0.00847112544395469,-0.104474571043139
0.00722229905886086,-0.0940693425041501
0.00557064064251706,-0.0498262233401599
0.00498900480918107,-0.0909834948011704
0.0027582753479154,-0.10797084438718
0.00100590892375908,-0.0717843658481905
-0.0004569219779363,-0.0613791373092006
-0.00281353644896759,-0.0840061353327106
-0.00462884537800673,-0.138054031793721
-0.00620497278849116,-0.0744749751297303
-0.00804545871948342,-0.0350658403407406
-0.00908028058797566,-0.17370846336425
-0.0107822930082257,-0.0521215942002614
-0.0117038183679289,-0.0973071859737711
-0.0128393482442337,-0.0635376996222818
-0.0132321565629212,-0.0619947757707911
-0.0138389693982104,-0.0870387659818017
-0.0135142331612339,-0.0629372483803116
-0.0138063334721089,-0.0871755745288215
-0.0134690087341559,-0.087243978802332
-0.0140380560665153,-0.0663651174508413
-0.0145441608939919,-0.122830006099352
-0.0156671022693201,-0.120481418185363
-0.0163620346114452,-0.0343437677713722
-0.0175605069926327,-0.0851690079823819
-0.0178526073035078,-0.117463974755892
-0.0187111901583282,-0.100613433716902
-0.0184116309233048,-0.0853742208029125
-0.0179484211755861,-0.100750242263923
-0.0175229769307971,-0.043616498099933
-0.0184067367875706,-0.0904134179984429
-0.018661071595516,-0.0622835800844533
-0.0190287029122504,-0.0889388984204633
-0.0194089227299614,-0.0591977323814732
-0.0201416205750162,-0.0939096913424835
-0.0204714863888209,-0.0835044628034932
-0.0204866396782116,-0.0674595858270033
-0.021231926024243,-0.135203771350514
-0.0213351988204696,-0.079681355311524
-0.0212622326030243,-0.103919681460034
-0.0213403283972978,-0.0451746091710432
-0.0211288886691103,-0.104862154069554
-0.0210936879545948,-0.0662586833430643
-0.0217760317957433,-0.0719667360540742
-0.0218793045919699,-0.0978163903275846
-0.0216049223588997,-0.0519619430385943
-0.0221362041883294,-0.103592847312105
-0.0209302728829935,-0.0947989468981146
-0.0193592750493373,-0.0997013355466247
-0.0186065297791577,-0.0764054820076345
-0.0174635409787047,-0.0756682222186447
-0.0162827866753219,-0.0459270561796556
-0.0155426299061188,-0.101586280765665
-0.0156584912033221,-0.0815130834766752
-0.0151449274516971,-0.0807758236876852
-0.0141781776649159,-0.0566743060861956
-0.0132869588839941,-0.102665561922205
-0.0126852756255332,-0.0987056458832161
-0.0114541673182442,-0.0681588157817253
-0.0100090544943536,-0.0859518294302358
-0.0087275921831584,-0.0811862493287457
-0.00726989085829127,-0.059501723914756
-0.00563595051975226,-0.0901853625632658
-0.00411530669000233,-0.0491648996492761
-0.0028967868836899,-0.112880764860286
-0.00160273607151808,-0.0815282706962966
-0.000610809282783759,-0.110600581219807
-0.00022313054092446,-0.080859415180817
0.0012597477858958,-0.0922071163293265
0.00216355506779417,-0.0608546221653368
0.00299183134383316,-0.0939552530013469
0.00409705464135655,-0.0738820557123569
0.00456026438907524,-0.142431905298367
0.00504865113874702,-0.0538772626968773
0.00669517997826261,-0.0660306279078872
0.00739757124453597,-0.0612650478063976
0.00837690953229372,-0.114507280204907
0.00926812831321552,-0.0847661141659174
0.0101089930902311,-0.045356979376928
0.0110128003721295,-0.109878508650438
0.0104941070436763,-0.0712750379239473
0.0108062547796762,-0.060869809384958
0.0112568760264183,-0.0762458308459685
0.0111032492262855,-0.0859822038694785
0.0112139809466604,-0.0699373268929879
0.012457677754926,-0.106260613978999
0.0132230115260821,-0.0741024557525088
0.0139128142913789,-0.0403329694010185
0.0149425065830429,-0.0919638736745282
0.0155567783424804,-0.052554738885539
0.0162591696087537,-0.0695420884715488
0.0170119148789334,-0.0913634224325588
0.0177898371510661,-0.081763857956069
0.0191468304681208,-0.0665246450420792
0.0209444213193551,-0.112515900878089
0.0216216355836753,-0.0626331332765997
0.0226387393743627,-0.100567748487609
0.0233663076425892,-0.0925795121361198
0.0231875038405032,-0.0757289710971297
0.0242171961321672,-0.0500161253706403
0.0248440563925812,-0.10164702964415
0.0255212706569015,-0.0888248089176603
0.0264754319427061,-0.0776139163161702
0.0276687747470655,-0.0672086877771801
0.0287865865455654,-0.10192064673819
0.029828867338206,-0.0915154181992007
0.0302920770859246,-0.10608577559771
0.0326687389820808,-0.0844012501837208
0.0335977232659323,-0.108639576332231
0.034262349029276,-0.0821210665432404
0.0341716647340259,-0.0725215020667511
0.0342194539495181,-0.093537171965261
0.0338014686288774,-0.067824326238771
0.0342395013746429,-0.0856173398872807
0.0342747020891585,-0.0977707050982908
0.034196606294885,-0.0881711406218019
0.0345087540308849,-0.0680979433328111
0.0345439547454005,-0.0875022851063215
0.0348183369784708,-0.102072642504832
0.0347905951881035,-0.065886163965842
0.0346495568889472,-0.0764282010518521
0.034533695591744,-0.107111839700362
0.034556307805283,-0.0765650095988722
0.0341257339836658,-0.0798560701223826
0.0335566866513063,-0.0678395134583926
0.0333652943482438,-0.0791872146069023
0.0326829505070953,-0.0687819860679125
0.0321264916757124,-0.0914089840914227
0.0315826213453061,-0.0552225055524326
0.0315045255510326,-0.0552909098259434
0.0312124252401575,-0.0440800172244531
0.0308573824243997,-0.0924882652479629
0.0305652821135246,-0.0538847945214729
0.0308018988436652,-0.0563701909824834
0.0305097985327901,-0.108001095255994
0.0308471232707432,-0.0130011401545037
0.0316124570418994,-0.103303919428013
0.0321134322925477,-0.0550324799515236
0.0311289644279617,-0.0438215873500335
0.0311515766415007,-0.0527522963110438
0.0308720648316022,-0.060071677147054
0.0301016014836178,-0.0182455501705642
0.0292430186287974,-0.0400668841315739
0.0287495023022974,-0.0465806009050839
0.0291371810441567,-0.0555113098660941
0.0286436647176566,-0.0563853782021043
0.0278857898706487,-0.0403405012256143
0.0271782690275471,-0.0629674992491248
0.0265588676912814,-0.044505630085134
0.0256373423315782,-0.0518250109211446
0.0252571225138672,-0.076063337069655
0.0248517256942031,-0.0197352569681651
0.0244840943774687,-0.0616981924916746
0.0243178790763593,-0.0504872998901853
0.0245419073055233,-0.044916055726195
0.0242875724975779,-0.0570694209372052
0.0237562906681481,-0.0708341142732155
0.0226837032967262,-0.082181815421726
0.0224167799878043,-0.067748266570236
0.0221498566788823,-0.0581487020937463
0.0228396594441792,-0.0461321454297556
0.0235924047143588,-0.0816497684532665
0.0256921195890306,-0.0341839930392761
0.0265203958650696,-0.0600336473127867
0.0276759731664992,-0.068964356273796
0.0290959089884367,-0.119789596484807
0.0300626587752178,-0.0586275320083172
0.0309664660571162,-0.109452772219327
0.0315555608146005,-0.0337887546178368
0.0323586600886864,-0.0644723932663469
0.0335394143920691,-0.0717917741023573
0.0323787075138113,-0.0718601783758671
0.032955213770319,-0.0517869810868773
0.0342744415844439,-0.0824706197353871
0.0344984698136079,-0.0543407818213975
0.035238626582811,-0.0463525454699076
0.0354878318139281,-0.148740285680918
0.0353467935147718,-0.0352100571419279
0.0354323482331936,-0.102148578602938
0.0352409559301311,-0.110273623501448
0.0344704925821466,-0.0966457387124579
0.0340650957624825,-0.0612649242359679
0.0331058048998496,-0.0855032503844781
0.0314289694815527,-0.0630130609079885
0.030406736114037,-0.106587324556498
0.0298628657836307,-0.0599272132050085
0.0301246595157244,-0.151841320603519
0.0299458557136384,-0.0399224201895289
0.0305853044750289,-0.136670511963039
0.0304820316788023,-0.0473102052990493
0.0311214804401928,-0.17628485957256
0.0315217476830287,-0.0377790450960688
0.032513674471763,-0.109551550932079
0.0330020612214348,-0.0733650723930896
0.0339813995091926,-0.1016317188541
0.0342306047403097,-0.0871981700026097
0.034706402989005,-0.0872665742761197
0.0349430197191455,-0.0526914238621303
0.0358468270010439,-0.13735455469814
0.0360205012263017,-0.0528282324091501
0.0368865430052703,-0.0851231991826603
0.037752584784239,-0.0561876972061704
0.0388829850837155,-0.12473754679218
0.039295840827528,-0.0482678651281905
0.0402751791152858,-0.1119837303392
0.0414055794147623,-0.0604896346127106
0.0431276392601372,-0.142735773261221
0.0439433270351996,-0.0557924587847305
0.045740917886434,-0.104200706808241
0.0475636857396214,-0.0478726267067511
0.0500662326455432,-0.0817789216052608
0.0514232259625978,-0.0729850211912715
0.0537747108568009,-0.0698307692147811
0.0547792261465117,-0.0618425328632914
0.0564509319879804,-0.0619109371368018
0.0577575713011288,-0.0498943804728114
0.0596558701601756,-0.113610245683821
0.0616800540289881,-0.062116149957332
0.0637545919017067,-0.0541279136058415
0.0648598151992301,-0.048556669441852
0.0665189325397222,-0.0292891362153626
0.0680521648704487,-0.101061642051373
0.0691699766689487,-0.0519845385123824
0.0700108414459642,-0.0995871224733927
0.0707132327122376,-0.0553440033094023
0.0710505574501907,-0.106169243520413
0.0714004706891203,-0.0442015149814231
0.0710202508714093,-0.0708568333174333
0.071483460619128,-0.0717309016534428
0.070989944292628,-0.0427953996769534
0.0709873795042138,-0.0767016945754636
0.0708715182070106,-0.103357012911473
0.0713221394537528,-0.0703931906224833
0.0708412116282292,-0.110744798020994
0.0710652398573933,-0.0157448429195035
0.0712011485797213,-0.107658950318014
0.071148229787401,-0.0376345811540239
0.0697483413905884,-0.0707352119900339
0.0696073030914321,-0.0434110381385442
0.0688871937473539,-0.0797343252245539
0.0691238104774945,-0.0532158154355638
0.0687939446636898,-0.101624063459074
0.0687536143723459,0.000626868204915698
0.0689021115956506,-0.0945098954435946
0.069516383355088,-0.0470441200296045
0.0697278230832754,-0.107537328990615
0.0711477589052129,-0.0254279988891246
0.0727313452398456,-0.0238850750376349
0.0741135155588534,-0.0779329714986449
0.0745641368055955,-0.0473861413971547
0.0746496915240173,-0.0708188034831654
0.074911485256111,-0.0636362311941756
0.0743424379237516,-0.0653159635926854
0.0741636341216656,-0.0234898366161957
0.0737204717990718,-0.128294569014706
0.0732898979774545,-0.0123473482882154
0.0723935496197044,-0.0639782525617255
0.0711950772385169,-0.022957789647736
0.0707015609120168,-0.0206092017337461
0.0707115846245792,-0.102049676319756
0.0706964313351886,-0.0118837055932663
0.0687552373963838,-0.0602919536167768
0.0681358360601181,-0.041024420390287
0.0671387796945555,-0.0531777856012968
0.0659277188123914,-0.0266592758123068
0.064754423433157,-0.117767719148317
0.0641350220968913,-0.025990420296827
0.0636666827723444,-0.0478117542578368
0.0630346929351021,-0.0502971507188473
0.0620124595675864,-0.0318352815548573
0.0613301157264379,-0.0351263420783677
0.0605470638774769,-0.0472797072893771
0.0596003615158206,-0.0658783850003875
0.0578102295887346,-0.0635297970863974
0.0563599871880158,-0.0410396076099078
0.055111160802922,-0.0225777384459183
0.0536609184022032,-0.0403707520944274
0.0521099679936719,-0.0799166954304381
0.050546429084164,-0.0388962325164486
0.0490835981824686,-0.045409949289958
0.0474067627641717,-0.039838705125968
0.0443451922384529,-0.0656883593994782
0.0422403477869528,-0.0375585214854885
0.0413691764311559,-0.0980517304464983
0.0404224740694996,-0.0167480644075088
0.0400674312537417,-0.094160218681019
0.0395109724223588,-0.0402491307670289
0.0394076996261322,-0.0483741756655393
0.0393925463367415,-0.0315236346265494
0.0394403355522336,-0.0485109842125593
0.0392363547481945,-0.0663039978610693
0.0394226174744288,-0.0413968161970797
0.0395333491948038,-0.0712747907830894
0.0399587934395928,-0.0777885075566
0.0403590606824286,-0.0641606227676101
0.0400417833696004,-0.0263628161036204
0.0404042851095066,-0.0248198922521296
0.0408674948572253,-0.0732281402756401
0.0414817666166627,-0.0305963492366505
0.0420330958712174,-0.0669196363226603
0.0432516156775298,-0.0637653843461705
0.0441176574564985,-0.0702791011196803
0.0453110002608578,-0.0389266069556909
0.0459504490222483,-0.0446346596667008
0.0467409597953577,-0.0809579467527106
0.047330054552842,-0.0383261557137207
0.0478058528015372,-0.0762607709247312
0.0480298810307012,-0.0634385501982414
0.0482916747627949,-0.0522276575967513
0.0486164109997714,-0.107081218120261
0.0482991336869432,-0.0692834114562714
0.0480573873799744,-0.0443762297922813
0.0481051765954666,-0.0710315481282913
0.0478760187894743,-0.0477356945893022
0.0470677899385602,-0.0566664035503115
0.0467631011267086,-0.0373988703238221
0.0467227708353648,-0.055997548034832
0.046481024528396,-0.0584829444958421
0.0464658712390053,-0.040826739394352
0.0461234169242239,-0.0852066671053622
0.0459697901240911,-0.0345182354413721
0.0462189953552082,-0.0539225772148827
0.04549888601113,-0.0507683252383924
0.0441997056221299,-0.0169988388869031
0.0428753482311768,-0.0621844306604129
0.0426587789261611,-0.0348602568089231
0.0413344215352079,-0.0590985829574335
0.0399974756432781,-0.0221064403559436
0.039189246792364,-0.0358711336919531
0.0383810179414499,-0.0738057489029634
0.0377238511022545,-0.0255343094264735
0.0367016177347388,-0.0376876746374836
0.0361199819014028,-0.0490353757859938
0.0345690314928715,-0.0402414753720036
0.033571975127309,-0.0403098796455139
0.0331288128047151,-0.0532689089190239
0.0325094114684495,-0.0178880944425336
0.0320536606448791,-0.042932084653544
0.0312831972968947,-0.0317211920520544
0.0305253224498868,-0.0591821744505647
0.0296541510940899,-0.031858000599074
0.0296515863056757,-0.0287037486225841
0.0287048839440194,-0.0618043794585953
0.0285512571438866,-0.0538161431071049
0.0282339798310584,-0.0361599380056147
0.0285335390660818,-0.0547586157166249
0.0293240498391911,-0.0580496762401349
0.0286165289960895,-0.0492557758261452
0.0278712426500582,-0.0525468363496553
0.0267105357718003,-0.0598662171856653
0.0271108030146362,-0.0196514183341757
0.0262899856627455,-0.0414727522951855
0.0255446993167142,-0.0326788518811955
0.0239308064033,-0.0472492092797059
0.0235002325816828,-0.0328156604282159
0.0223772912063546,-0.0844465647017262
0.0214180003437217,-0.0248958283502358
0.0204209439781592,-0.0507454826237462
0.0196001266262685,-0.0330892775222568
0.01972344684762,-0.0323520177332667
0.0190159260045184,-0.0332260860692763
0.0184342901711824,-0.0252378497177864
0.017487587809526,-0.014832621178797
0.0170696024888853,-0.0197350098273066
0.0166012631643384,-0.033499703163317
0.0173162429315883,-0.0206774824368268
0.0176535676695414,-0.0151062382728374
0.0181167774172601,-0.0594861659838473
0.018630341168885,-0.00799207025735732
0.0192697899302756,-0.0346473885933673
0.0201358317092443,-0.0250478241168773
0.0203220944354786,-0.00819728307788786
0.0208356581871036,-0.0203506482888974
0.0209463899074785,-0.00994541974990748
0.0216991351776581,-0.0172648005859178
0.0222882299351425,-0.0237785173594285
0.0226129661721189,0.0244929221170617
0.0230761759198376,-0.0134416930939482
0.0238666866929469,-0.00867611299245818
0.0240403609182047,-0.0224408063284683
0.0243147431512749,-0.00478460122697816
0.0244632403745795,-0.0209662867504885
0.0250019811281576,-0.00331008164899893
0.0254274253729466,-0.0259370796725088
0.0256010995982044,-0.0380904448835186
0.0259887783400637,-0.00915494290702923
0.0260869215594621,-0.0261422924930394
0.0268270783286651,-0.0278220248915492
0.0275294695949385,-0.0117771479150591
0.0291885869354306,-0.0207078568760695
0.0303189872349071,-0.0352782142745799
0.0334887246925867,-0.0401806029230899
0.0341407619549539,-0.0136620931340996
0.0354977552720085,-0.02178713803261
0.0356840179982428,-0.0210498782436198
0.0367892412957662,-0.03803722782963
0.0364341984800083,0.00540022727185996
0.037904488305852,-0.0413966926266502
0.0379145120184144,0.00365209059983929
0.0387176112925003,-0.0592581105486704
0.0384003339796721,0.00512661017781935
0.039115313746922,-0.00138710659569052
0.0382693193930782,-0.0207914483692006
0.0392486576808359,-0.00716356358021136
0.0394097434051172,-0.0233452491037209
0.0402002541782265,0.0200922059977691
0.0402732203956717,-0.00414612015074162
0.041151850675617,-0.00824284473675124
0.0407842193588825,0.032777618177239
0.0414110796192965,0.00289964359122885
0.0399482487176012,0.00524823150521853
0.0399205069272339,-0.00609946964329144
0.0394018135987807,0.00430575889569779
0.0393111293035307,0.0163223155596879
0.037797944397929,-0.0151669871513223
0.0374554900831477,0.0371327726376677
0.0363577257097727,0.015311438676658
0.0369971744711632,0.000741081278147759
0.0361008261134132,-0.00254997924536282
0.0350911812468741,0.0102722414811273
0.0342325983920537,-0.00188112372988236
0.0340286175880146,0.00127312824660691
0.0327042601970614,0.0100670286605969
0.0316190843246629,-0.0246449303004133
0.030168841923944,-0.0102113814489229
0.0288067190300612,0.0195297845900672
0.0274949501400846,-0.0232388149959434
0.0270014338135845,-0.0297525317694532
0.0254127179021235,-0.0209586313554633
0.024214245520936,-0.00491375437897329
0.0228647111280296,0.0151594429100161
0.0216536502458655,-0.0123015394884938
0.0205432973715139,-0.0470134984495037
0.0199994270411076,0.00448059727698596
0.0194681452116778,-0.0495672991840241
0.018823566873459,0.0236797262299656
0.0161774168799667,-0.0368134827310441
0.0143746964519042,-0.0143232932545541
0.0113634799300916,-0.051452244403064
0.00948522849616967,0.0129324763234255
0.00715379102709147,-0.0330587795125847
0.00557766361660703,-0.0307101915985946
0.00337211115729447,-0.0315842599346048
0.00177080674485691,0.0142701873543849
0.000396095349997475,-0.0341380606691249
-0.000374367997986957,-0.0245384961926352
-0.00192531840651827,0.0100366542213547
-0.00311120228672927,-0.0158130000521552
-0.00454885618647151,-0.0609985918256654
-0.0059739215852372,-0.0264234414116756
-0.00669403092931539,-0.0144068847476859
-0.00815686183101078,-0.0112526327711956
-0.00953157322587019,-0.0419362714197057
-0.0108936961197531,-0.0138064335057159
-0.0121928765087531,-0.0436844080917266
-0.0145243139778313,0.0142550001347632
-0.0160374988834329,-0.0534891853887459
-0.0185074098632533,-0.0140800505997563
-0.0195799972346753,-0.0616826345607663
-0.0207658811148863,-0.00938287477177635
-0.0218132914843551,-0.0432891696702866
-0.022281630808902,-0.0481915583187967
-0.0228884436441911,-0.0659845719673074
-0.0238351460058474,-0.0225471168658167
-0.0246433748567615,-0.0371174742643269
-0.0250487716764257,-0.0919710347878371
-0.0241575528955039,0.0110855609386529
-0.0243741222005195,-0.0349056948973575
-0.0245025719986993,-0.028528786670867
-0.0246687872998087,-0.0165122300068775
-0.0237901570198635,-0.0270542670928882
-0.0245228548649182,-0.00214708542889769
-0.0238330520996214,-0.0368590443899073
-0.0232439573421371,-0.033704792413418
-0.0225793315787934,-0.0104089388744278
-0.0221412988330278,-0.0306189447104378
-0.0214137305648014,0.0152355025785514
-0.0199560292399342,-0.00819715950745864
-0.0196187045019812,0.0054307252815311
-0.0186771317171531,-0.0284755696169793
-0.0175970854215828,-0.0132363567029882
-0.0175870617090204,-0.0495596437889985
-0.0172371484700908,-0.0327091027500089
-0.0156032081315518,-0.0110245773360192
-0.0139315022900831,-0.123885950359529
-0.0119702609261535,0.00736888755446047
-0.00990831155441134,0.0298590770309503
-0.00950804431157547,-0.0499700694300598
-0.00708102841151302,-0.0186175752660696
-0.00440224249191934,0.00951226264792032
-0.00251653213384909,0.0328081161869101
-0.00103365380702884,-0.0196284521490998
0.000826879549088277,-0.0164742001726098
0.00218387286614291,-0.0471578388211199
0.0021435425747991,-0.0295016337196303
0.00264451782544746,0.0501907041943594
0.0021132359960177,-0.0683103172666504
0.00183372418611921,-0.0216502059151607
0.00100031833325195,-0.0603904851886707
0.00122434656241596,-0.0298436550871809
0.0024428663687284,-0.0419970202981908
0.00364879767406426,0.017553716053299
0.00490508298330639,-0.0211865632202108
0.00582147876618132,-0.0591211784312211
0.00673787454905626,0.0197654954202687
0.0075535623241187,-0.0173634557282411
0.00873431662750146,-0.0150148678142514
0.00962553540842326,0.00264133728723809
0.0101390991600482,-0.0280423013612717
0.0100106493618685,-0.0136087525097818
0.00985702256173558,-0.0048148520957923
0.0103705863133605,-0.00407759230680194
0.0107960305581495,-0.0452348637678121
0.0110578242902432,0.00545356789617768
0.0113573835252666,-0.0332867113773325
0.0116191772573603,0.0190130484116578
0.0116921434748055,-0.000391293361852396
0.0114755741697898,-0.0101276663853627
0.0116114828921179,0.00511154652862689
0.0119739846320241,-0.0126814671198832
0.0127393184031803,0.0339786442316072
0.0142851392348834,-0.00315030691690288
0.0139930389240083,-0.00160738306541286
0.0140156511375473,-0.000870123276423274
0.0134969578090941,0.00308979276256671
0.0131922689972425,-0.00342392401094332
0.0134792397312893,-0.00107533609695393
0.013338201432133,0.00127325181703658
0.0140531811993829,0.00684449598102638
0.0142016784226875,0.00435909952001634
0.0137962816030234,0.0155699921215063
0.0130761722589452,-0.0191419668395042
0.0125197134275623,0.00898787107448612
0.0121394936098513,0.00650247461347592
0.0115452692755388,-0.0233754999725345
0.0110517529490387,0.0144223066914559
0.010029519581523,0.0119369102304459
0.00888140120424173,0.0158968262694356
0.0079095218406323,0.0166340860584256
0.00741600551413223,0.0165656817849154
0.0068847236847025,-0.0060613162385949
0.0053589502781243,0.0534894201128945
0.00481507994771799,-0.0198944138481154
0.00429638661926479,0.0106524162533746
0.00309791423807723,0.00575002760486498
0.00284357943013186,-0.0128486501061456
0.00240041710753805,0.00641888312034467
0.00199502028787395,0.010378799159334
0.000192299859811396,0.00869906676082433
-0.0019125445916887,0.0263552718623138
-0.0039418580373294,0.0150075707138037
-0.00454867087261855,-0.016481731997206
-0.0069934048504858,0.00600845747928436
-0.00906048379905615,0.0228589985182736
-0.0110772087437203,0.000232000494763462
-0.0134086462127985,0.0291675024712534
-0.0152743091457438,0.00573484038524347
-0.0169385560630642,0.0225853814242334
-0.0173187758807752,0.0104320162132229
-0.0177871152053222,0.010363611939713
-0.017940742005455,0.0344651295412032
-0.0184846123358613,0.0319797330801932
-0.0186885931399005,-0.0043435540058171
-0.0188422199400333,0.0245919479706724
-0.0183790101923147,0.0583614343221629
-0.0181675704641272,0.0341231081736525
-0.0177421262193382,0.000216813275142724
-0.017266327970643,0.0388202840016321
-0.0164254631936274,0.0323065672281225
-0.0155594214146587,0.00967956920461177
-0.0152724506806119,0.000748860243602267
-0.0144441744045729,0.0039031122200921
-0.014245323177362,0.0553972079465819
-0.0132282193866746,0.0367985302355718
-0.0123621776077059,0.0173941884620616
-0.0122010918834247,0.0302164091885515
-0.0117127051337529,0.0188687080400419
-0.0112872608889639,0.0163833115790314
-0.0106478121275733,0.021954555743021
-0.0102475448847375,0.0436390811570104
-0.00960809612334691,0.016178098758501
-0.00986243093129227,0.0298059835474906
-0.00898380065134702,0.00476199333648031
-0.00993050301300333,0.0280578468754707
-0.0100967183141128,0.0231554582269612
-0.0105902346406128,0.0359776789534505
-0.0102906754055895,0.0286582981174403
-0.010683483724277,0.0543711438439304
-0.00950272942089427,0.00515723175792016
-0.01012213075716,0.0550399993594098
-0.0100995185436209,0.0283846810233997
-0.0101398488349648,0.0226766283123897
-0.00980252409701171,0.01777423966388
-0.0103841599303477,0.0128718510153694
-0.00999648118848841,0.0506696576793597
-0.00999904597690253,0.0280426596558493
-0.00956101323113696,0.00138734131984003
-0.0105580695966995,0.0424078042338293
-0.0110012319192933,0.0278374468353193
-0.0113940402379809,0.0382426753743089
-0.0110567155000278,0.0228666539132993
-0.0119530638577779,0.0397171949522894
-0.0117416241295905,0.013061876616279
-0.0126631494892937,0.0274954254677687
-0.0125020637650125,0.0491799508817586
-0.0132473501110438,0.0289699450457482
-0.0134513309150829,0.0869093532722384
-0.0142721482669736,0.0385011052487278
-0.0139851775329268,0.0142627791002184
-0.0155235394404815,0.0270849998267081
-0.0158659937552628,0.029433587740698
-0.0166112801012942,0.0108349100296876
-0.0166390218916614,0.0292967791936781
-0.0174724277445287,0.0203660702326674
-0.0171099260046225,0.0380222753341572
-0.0169362517793647,0.0105612929356471
-0.0166241040433648,1.92558496375228e-05
-0.0161734827966227,0.040234054701127
-0.0158613350606227,-0.0130081776973831
-0.0160401388627087,0.0223726367791072
-0.0163448276745604,-0.033286587806903
-0.0168761095039901,-0.0164360467679132
-0.0164884307621308,0.0310297286460761
-0.0167050000671465,-0.0487994178149334
-0.0168838038692325,0.0413665529115567
-0.0168108376517872,-0.0142926716744531
-0.0163098624011388,0.0130315021770364
-0.0165012547042014,0.00732344946602598
-0.016403111484803,-0.00241292355748357
-0.0165693267859125,0.0120206252940062
-0.01655930307335,-0.00416106022950408
-0.0172038814115688,-0.000201144190514202
-0.0175085702234204,-0.0123545094015239
-0.0184049185811705,-0.00839459336253467
-0.0185333683793503,-0.0205479585735444
-0.0194171282361238,-0.0133653862845545
-0.0196085205391863,0.0631042953794352
-0.020630753906702,-0.0336437963940747
-0.0210487392273427,0.00898799464491518
-0.0216681405636084,-0.0152503315035948
-0.0219224753715537,0.0507457173478953
-0.0229069432361397,-0.015387140050615
-0.023538933073382,0.00710304942587447
-0.0239820953959758,-0.0155239485976356
-0.0240727796912259,-0.00592438412114576
-0.023471096432765,0.0157601412928446
-0.0237883737455932,-0.021368809855666
-0.0235265800134995,0.000315715558324103
-0.023403259792148,-0.00458667309018534
-0.0230155810502887,-0.00868339767619597
-0.0226404908094059,0.0291144089877936
-0.0228067061105154,-0.014459854660716
-0.0233757534428748,0.0265606082532741
-0.0239196237732811,0.00876759460476365
-0.0247026756222421,0.00708786220625324
-0.0260270330131953,0.00218547355774362
-0.027363978905125,-0.0405831260282664
-0.0281973847579923,0.00929964157322338
-0.0293455031352736,0.00278592479971279
-0.0303929135047424,0.0107741611512028
-0.0314277353732346,-0.00299053218480655
-0.030674990103055,0.00660903229168297
-0.0307782628992817,0.0202369170806723
-0.0312969562277348,-0.0168920340678375
-0.0317527070513052,0.0257397569711527
-0.0305719527479225,-0.0130005223023573
-0.0303479245187585,-0.000178301575867734
-0.030023188281782,0.0102269269631223
-0.0307936516297664,-0.0228737038728877
-0.0309724554318524,-0.00199484252139787
-0.0306980731987821,0.0188840188300919
-0.030939819505751,-0.000520322943418416
-0.0315088668381104,0.00343959309557168
-0.0302148160259386,-0.0030741236779383
-0.0296634867713839,-0.000725535763948792
-0.0298297020724934,-0.0144902290999588
-0.0298196783599309,-0.00408500056096872
-0.0296837696376029,0.00229190766552112
-0.0296989229269935,-0.0565899731704893
-0.0299658462359155,-0.0276544711939996
-0.0301320615370249,-0.0124152582800092
-0.0314186534250484,-0.0149006547410194
-0.0320254662603376,-0.0173860512020298
-0.0321413275575408,0.00671546639946041
-0.0318795338254471,0.00100741368845053
-0.0318820986138612,-0.0272592327725594
-0.0324259689442675,-0.00557470735857019
-0.0328061887619785,0.0201381383679199
-0.0327961650494161,0.03215469503191
-0.0331386193641974,-0.0960142951791
-0.0331411841526115,-0.0179332853901106
-0.0349564930816506,-0.0171960256011208
-0.0353870669032679,-0.0486853283121301
-0.0357672867209789,-0.00202521696064073
-0.0363363340533383,-0.0157899102966504
-0.036552903358354,-0.0037733536326609
-0.0366058221506744,0.0235508202188296
-0.0364447364263932,-0.0385537168671808
-0.0364724782167604,-0.0442617695781909
-0.0365128085081043,0.00884365427329881
-0.0363265457818699,-0.084681781250211
-0.0360269865468466,-0.0476896386487216
-0.0362057903489326,0.0352253555152685
-0.036170589634417,-0.0333244940707418
-0.035946561405253,-0.0172796170942511
-0.035319701144839,-0.0455462635552621
-0.0341011813385266,-0.0311127147037717
-0.0332854935634641,0.0373003263352177
-0.0329355803245345,-0.052196788875792
-0.0326737865924408,-0.0200386306493022
-0.0327392938857377,3.45666396875943e-05
-0.0318984291087222,-0.0403170407588225
-0.0314478078619801,0.0031204143426678
-0.0316392001650426,0.0304445881941576
-0.0316669419554099,-0.0397165895168526
-0.0313044402155037,-0.0260887047278627
-0.0313321820058709,0.0544092972486272
-0.0309948572679179,-0.0141405523373828
-0.0309722450543789,-0.0448241909858935
-0.0303076192910352,0.0147265453655966
-0.0304486575901915,-0.0232080698454131
-0.030413456875676,-0.0119971772439231
-0.0297614196133088,-0.0652394096424339
-0.0300912854271136,-0.0209962904784438
-0.0301567927204105,0.0313034693105468
-0.0313930306045277,-0.109756145900464
-0.0319620779368872,0.0376119732635258
-0.0315743991950279,-0.0583304544474841
-0.0316902604922311,-0.0124760071584937
-0.0325866088499811,-0.00368210674450414
-0.0332060101862468,-0.0206694563305143
-0.0334603449941922,-0.0142925481040242
-0.0334377327806532,-0.0635064601900343
-0.0326598105085204,0.0459954480364555
-0.0332414463418564,-0.0459186593620549
-0.0328915331029268,0.0176603973019348
-0.0321765533356769,-0.0371931632215747
-0.0312853345547551,-0.00745199718258549
-0.0304696467796927,-0.014771378018595
-0.0300316140339271,-0.0285360713546056
-0.0297572318008568,-0.058414045940615
-0.0284757694896616,0.0293349325983745
-0.0278740862312007,-0.0126280029251359
-0.0271465179629741,-0.0328380087611458
-0.0267714277220914,-0.0256554364721556
-0.0259683284480055,-0.0523107548081657
-0.0247498086416931,0.0297985752933241
-0.0238208243578416,-0.00249639148018604
-0.0236093846296542,-0.0339856941911961
-0.0232342943887714,0.0175084015352939
-0.0229976776586308,-0.0599037527382164
-0.0230757734529043,0.00286963986327352
-0.0231916347501075,-0.00364407691023644
-0.0228417215111779,0.00595548756625341
-0.0231464103230295,-0.00539221358225628
-0.021298465467889,-0.0167399147307673
-0.0207723132152875,0.0186408997457233
-0.0202839264656157,-0.0370183248402867
-0.0185241011173111,0.0894025286987031
-0.0181364223754517,-0.0806609927623075
-0.0179753366511706,0.0505938451516826
-0.0177513084220066,-0.0864374497468273
-0.017313275676241,0.0528740287921627
-0.0166108844099676,-0.0454853911063474
-0.0159966126505302,-0.00446492819235716
-0.01531939838621,-0.00131067621586789
-0.0143022945955225,0.0421267788856217
-0.0129830667813976,-0.0691232660128878
-0.0125702110375851,0.0170143844011019
-0.0117671117634993,-0.0716770667474088
-0.0120214465714446,0.00801527116658135
-0.0114827058178666,-0.0146117268569286
-0.0113593855965151,0.0328540485570616
-0.0103800473087573,-0.0606713869664489
-0.0104707316040074,-0.00192631467745902
-0.0107250664119527,-0.0229419845759689
-0.0111052862296637,0.0623900017755213
-0.0108309039965935,-0.086726254060489
-0.0108712342879373,0.054196552603501
-0.00989189600017953,-0.0344948985450091
-0.00825795566164053,-0.0103933809435196
-0.0061330637850156,-0.0104617852170295
-0.00405852591229691,-0.0637040176155398
-0.0018581030298126,0.00793167967345054
0.000493381864390463,-0.0283916074125598
0.00285745525957008,-0.00751274606106972
0.00442845309322626,-0.0510870097095801
0.00706947350989026,-0.0205401796080906
0.00921954238846832,-0.0238312401315997
0.0113570227660698,-0.0319562850301102
0.0140358086856635,0.0284001153838793
0.0169160106208822,-0.0441780545146304
0.018612893464304,0.00731604121185947
0.0208888473526477,-0.0201449411866504
0.0231270357380617,-0.0500229157726604
0.0255666401391007,0.00469383620382935
0.028258014559671,-0.0227671461946813
0.0305465569489912,-0.0292808629681913
0.0333512278783506,0.0117395999457985
0.0357153012735302,-0.0294176715152117
0.0375128921247645,-0.0028991617262214
0.0396377840013894,-0.0142468628747316
0.0409570118155144,-0.0376795249607417
0.0440386297663581,0.0122032426407483
0.0465034111693502,-0.00800676319526167
0.0481499400088657,0.0273740512812279
0.0491922208015063,-0.0137832201797828
0.0511408736644594,-0.0122402963282926
0.053102115028389,0.00219325252319796
0.055138887398178,-0.0131827689378129
0.0568105932396467,-0.0035832044613229
0.0589103081143185,-0.00445727279733255
0.0605694254548106,-0.0303069270708431
0.0625306668187403,-0.0215130266568528
0.0643786116738808,-0.0586419778053633
0.0672336366071464,-0.0103705383288734
0.0696732410081854,-0.00882761447738306
0.0717729558828572,-0.00889601875089299
0.07295371018624,0.0256791316630965
0.0743610575072008,0.0352786961395864
0.0753152187930055,-0.0711373643839235
0.0767477431159194,-0.0293112374074337
0.0769088288402006,0.0028469208190563
0.0783161761611615,-0.039116014704454
0.0781625493610287,-0.00534652835296384
0.0790915336448802,-0.0239452060639742
0.0797939249111535,-0.0393212275249843
0.0805844356842629,-0.0224706864859942
0.0805315168919425,-0.0305957313845045
0.0804911866005987,-0.0250244872205146
0.0811684008649189,-0.0186475789940245
0.081216190080411,-0.0396632488925346
0.0817801078359422,-0.00347677035354454
0.0822307290826843,-0.0140188074395549
0.0830590053587233,-0.0382571335880649
0.0835473921083952,-0.0165726081740752
0.0836707123297466,-0.0287259733850851
0.0833156695139887,0.00101519265390462
0.0829732151992074,-0.0320854381821064
0.0827566458941918,-0.0345708346431157
0.0824645455833167,-0.0789507623541255
0.0818577327480276,0.016049192747364
0.0813642164215275,-0.0533063209011457
0.0806944610813556,-0.0147028501746559
0.0790679796669649,-0.030078871635666
0.077592560264293,-0.0583455180966762
0.0761423178635741,0.00603920262981364
0.0749186684804334,-0.0101424828936964
0.0741230281304959,-0.0529110824797061
0.0733903302854411,-0.0102792914407162
0.072984933465777,-0.0192100004017268
0.0720759966070504,0.00166886094976312
0.07121741375223,-0.0298204417612462
0.0710008444472143,-0.0153868929097565
0.0696261330523549,-0.00256467218326736
0.0682136561545658,-0.00343874051927737
0.0679844983485735,-0.0115637854177867
0.0679189910552766,-0.0156605100037975
0.0674884172336593,-0.0157289142773075
0.0672592594276671,-0.0407729044883177
0.0668412741070264,-0.0456752931368277
0.0667380013107998,-0.00304350209783752
0.0660430689686747,-0.0176138594963482
0.0653355481255731,-0.0257389043948583
0.0646280272824715,0.00964191008163187
0.0631148423768698,-0.0403776660668781
0.0610855289312292,-0.0211101328403883
0.0594338705148853,-0.0413201386763989
0.0569010170301822,-0.0494451835749084
0.0554004206255571,-0.0680438612859187
0.0541515942404633,0.00439750006557121
0.0524999358241195,-0.00533887295793853
0.051011927920471,-0.0166865741064484
0.0493099155002209,0.0194999044325411
0.0476960225868068,-0.00876674202846861
0.0458051826519083,-0.0539523338019791
0.0444682367599785,-0.020988511512989
0.0430935253651191,-0.0428098454739992
0.0421845885063925,-0.0686594997475094
0.0409735276242283,-0.00105212277101954
0.0392463382020251,-0.0341527536070293
0.0371918477544313,0.00847903743196055
0.0357416053537125,-0.0230102652790499
0.0340647699354156,-0.01743902111506
0.0326397045366499,-0.0158960972635694
0.0307236875997983,-0.0320777827870799
0.0289461441736888,-0.0224782183105898
0.027584021279806,-0.0459108803966002
0.0272415669650246,0.0128341918923897
0.0259549750770011,-0.0331570639436203
0.0245550866801886,-0.0380594525921302
0.0224250652267354,-0.00348430217814114
0.0201943357654697,-0.0301396205141506
0.01805172581104,-0.0567949388501608
0.0140963717159852,-0.0206084603111709
0.0106571461609695,-0.0045635833346806
0.00670179206591479,-0.0151056204206906
0.00238137144253971,-0.00953437625670139
-0.00263141673454628,-0.0547199680302112
-0.00648606282178854,0.00805342457127839
-0.0102525894021948,-0.0468001359522318
-0.0135155759435387,0.0232242332117581
-0.0159099559174996,-0.0477426085617521
-0.0184931634061091,0.0230874246647378
-0.0210889593956951,0.00368308289122787
-0.023458162367703,-0.0447251651322821
-0.025248294294789,0.00515760246920816
-0.0273657272472656,-0.0102184189918021
-0.0282368986030625,-0.00545283889031245
-0.0286548839237032,0.0218713349611773
-0.028984749737508,-0.0305652333748331
-0.0293020270503361,0.00400991703915732
-0.0297829548758596,-0.0105604403593524
-0.0305534182238441,0.011124085054637
-0.0312861160688988,-0.0123085770313731
-0.0324594114481333,0.0238779015076162
-0.0346649639074458,0.0157528566091072
-0.0375880609224225,-0.00687414141440335
-0.0404230384305631,0.0293123371245863
-0.043484608956282,-0.0199015749614234
-0.046797949501532,0.0146735754525666
-0.0504134140702196,0.0436090774290561
-0.0538274626232821,0.0354840325305465
-0.0569142101509541,0.022525003257036
-0.0607185022342901,0.0530718333585262
-0.0641954932922355,0.00144092908501545
-0.0671311788081886,0.0416557279365058
-0.0696766207938684,0.0262797064754949
-0.07199546976197,0.0342679428269853
-0.0741380797163998,0.00519563230347553
-0.0753491405985639,0.0260744936549652
-0.0775546930578765,0.0453420268814548
-0.0790049354585953,0.0307716694829454
-0.0806565938749391,0.0669581480219348
-0.0816914157434313,-0.0201219750015756
-0.0832171891500095,0.0200928238499145
-0.0846800200517049,0.0288867242639051
-0.0855637799084784,0.0127050387403942
-0.0863342432564628,0.00860831415438418
-0.0868403480839395,0.0262645192558744
-0.0875730459289942,-0.00441911939263614
-0.0879532657467052,0.0132370857088544
-0.0884467820732052,0.0429782517478438
-0.0894186614368147,0.00584930059933367
-0.0892198102096038,0.0259224978883238
-0.0882027064189164,0.0298824139273139
-0.0868457131018617,0.0193403768413038
-0.0846956442232837,0.0216889647552928
-0.0825833408476353,0.0055072792317834
-0.0801311479456197,0.0151068437082729
-0.0777670745504401,0.049681994122263
-0.0756925366777214,0.0165813632862531
-0.0734039942884011,0.0237639355752431
-0.0712413369088465,-0.0036970468232673
-0.069103856531245,0.0421574004657231
-0.0647256229798154,0.0106680977547128
-0.060800575463542,0.0234903184812027
-0.056548226921878,0.0379238673326923
-0.0517168073352922,0.00240624430918246
-0.0467972682418703,0.0659853009731722
-0.0419154946513782,0.0103260763871623
-0.0364798270179173,0.062625836176152
-0.0307672123629721,-0.00914666965985811
-0.0257091997588081,-0.0486926129958686
-0.0203742401331597,0.0100524592931221
-0.0156057630514566,0.00273307845711171
-0.0107617549638942,0.0429478773086013
-0.00605622038707396,0.0565757620975913
-0.00074643776337871,-0.0321156890509187
0.00434934034371498,0.0153500863630708
0.00841286137073055,-0.0314468335354387
0.012161669873332,0.040994527816051
0.0156461198554257,-0.0154703608324588
0.0171919406871288,0.0158821333315311
0.0191531820510584,0.0359553306205203
0.0204472328632302,0.0294416138470105
0.0221944697105583,0.0632111001985007
0.0238787640530035,-0.0867108197000097
0.025210580368105,-0.0126581302235201
0.0275117112584019,-0.0248114954345302
0.0309206302346362,0.0484355299794605
0.0351729787763002,0.0145292350809499
0.0390728492906204,0.0474930573699398
0.0421670557424407,0.0619266062214299
0.0453367932001203,-0.0364328136770798
0.0490478361997921,-0.0219992648255902
0.0525196976809092,0.0697780340258996
0.0553621341131982,-0.0479173233726105
0.0582801015513466,0.00277110829137919
0.0601532234084402,0.0389575868303696
0.0623158807879949,0.0227759013068592
0.0638994671226276,0.0533227314083492
0.0661376555080416,-0.0160327822401608
0.0674568833221666,-0.0144898583886711
0.0685621066196899,0.0370042373378184
0.0698813344338149,0.0675510674393083
0.0713138587567289,0.0779562959782984
0.0718903650132366,-0.0236257801702117
0.0720892162404475,0.056066557743778
0.0724643064813302,-0.000398330904732014
0.0726128037046349,0.0422334601342586
0.0716786898439551,0.0252461105482478
0.0706186909735097,0.0388739953372378
0.0693195105845097,0.0363885988762278
0.0680077416945331,0.0266522258527176
0.0662050212664705,0.0169158528292077
0.064024645809111,-0.00248848894430295
0.0620205093654235,0.0627018958446874
0.0595757753875562,0.000597358758677391
0.0566526783725796,0.00697426698516748
0.0535785193458842,0.0641080111491574
0.0503029443035639,-0.0415023853118531
0.0467378337387826,0.0414126088521372
0.0426817716359153,-0.0142466157338732
0.0386760635369543,0.0420814643676168
0.0340912843930714,0.00817516946910665
0.0302618153077823,0.0250257105080967
0.0261805762029619,0.0354309390470864
0.0222378106088838,-0.0258679339764233
0.0166459513868759,0.102969911750066
0.0113310391863524,0.0295860777890562
0.0050090469077039,0.011793064140546
-0.000784228329928971,0.0350889176795361
-0.00694257009588216,-0.00365136159397403
-0.0125470178188666,-0.0013027736799836
-0.0178493415184135,0.0421346814215058
-0.0231516652179605,0.0211190115229956
-0.0283281039077418,-0.00311931462551493
-0.0328121750438122,0.0370954842259752
-0.0364024626105466,0.0869782518274652
-0.0395143871401717,-0.0766399571335454
-0.0425004266600311,0.0513922245304449
-0.0457130591974687,0.0400445233819356
-0.0490012227407656,-0.00675239651657528
-0.0514963107225391,0.00848681639741466
-0.0536011551740391,-0.018974166001095
-0.0561088316567892,0.016406648475395
-0.0577730785741096,0.0775687129518846
-0.0595128564972893,0.0106301914908737
-0.0611645149136331,0.0234524122173644
-0.0630301778465785,0.0088820548188544
-0.0650720797931958,0.028955252107844
-0.0682973008316099,-0.0371776052906664
-0.0718749998973678,0.0384864123108236
-0.0754149334601959,-0.0453710544626858
-0.0796598230777116,0.0230419865763038
-0.0828724556151492,0.0108886213652934
-0.0864753316828602,0.0462694358417831
-0.0896753757193212,0.0139744690682736
-0.0936055528124228,0.00101543979476332
-0.0969188933576729,-0.000664292603746536
-0.100496592423431,-0.0152346500022569
-0.10344486644036,0.0225631566617328
-0.105537122390884,0.0297457289507227
-0.107906325362892,0.0200093559272126
-0.110036346816345,0.00141067821620236
-0.11274543931472,0.0142328989426924
-0.11488804926915,0.00530218998168239
-0.116527119184517,0.0205414028956723
-0.118128423596955,0.0116106939346619
-0.118710059430291,0.0131536177861521
-0.119329460766556,0.00744556507514219
-0.118236825970009,0.0484660279891317
-0.118201625255494,-0.0281404622218786
-0.119513394145471,0.00321203194211167
-0.120309034495408,0.0176455807936013
-0.122036223917611,-0.00417575316740848
-0.1242543648779,0.00300681912158127
-0.126976045877252,-0.00672955390192881
-0.130251620919572,0.0616834871370614
-0.133300602944315,-0.0157286671364494
-0.136563589485658,-0.00290644640995932
-0.139260093483057,0.00588745400403079
-0.141654473457018,0.0187096747305209
-0.14389779141926,0.0170299423320107
-0.146632060919588,-0.0305726416289995
-0.149089383398432,-0.0523939755900093
-0.15101798883626,-0.00573386423851951
-0.15279553226237,0.0336752705504703
-0.15405694714844,0.0102426084644599
-0.155607897556972,-0.0293033348715502
-0.156982608951831,-0.0180924422700598
-0.158495793857433,0.0180940362689297
-0.159996390262058,-0.0109782742545804
-0.160238136569026,0.0163458995969097
-0.158604196230487,-0.0111150828016006
-0.157926981966167,-0.020045791762611
-0.15767777673505,-0.0265595085361206
-0.156862088959988,0.0168779465653691
-0.156121932190785,-0.0371699498956411
-0.155293655914746,0.00707316926834844
-0.15449055664066,-0.000246211567660998
-0.154039935393918,-0.0244845377161715
-0.154168385192097,0.0197585814478184
-0.153717763945355,-0.00609107282569191
-0.152813956663457,0.00109149946329787
-0.151255547330777,-0.00945053762271134
-0.149747492002004,-0.0264378872087219
-0.147899547146863,-0.0273119555447318
-0.145762066769262,-0.00240477388074162
-0.142403501796934,0.00800045465824797
-0.140152724910543,-0.0122095511777621
-0.139261506129621,0.0151146226737275
-0.137866747309637,-0.014763351912282
-0.135943271448637,-0.00677511556079258
-0.132924596002676,-0.0157058245218023
-0.129654150537184,-0.0230252053578126
-0.125653572015051,-0.00698032838132298
-0.122143945031004,-0.00302041234233241
-0.118646906547934,-0.00228315255334283
-0.115766704612716,-0.00799120526435343
-0.111954953605231,-0.00725394547536276
-0.107740370566497,-0.0065166856863732
-0.103336960013114,-0.0251153633973834
-0.0984425979216455,-0.00907048642089334
-0.0933342313135753,-0.00752756256940312
-0.0883643382162472,-0.0325715527804139
-0.0848043572282942,-0.0108870273664242
-0.0810555487256927,-0.0101497675774343
-0.0764507221566849,-0.0311654374759444
-0.07271450215506,-0.00786958393695406
-0.0684999191163257,-0.00793798821046404
-0.0644238095883335,0.00568989657852545
-0.0606498240837789,-0.0338560467574846
-0.0571276085987556,0.0176380489690057
-0.0535298621078728,-0.033992855304505
-0.0514930897380838,-0.00344602520301501
-0.0486128878028652,-0.0188220466640253
-0.0438821762240918,0.0052794709374652
-0.0402718412322325,-0.00848522239854496
-0.03583066517592,-0.00935929073455508
-0.0303572320395295,-0.0287636325080652
-0.0239144843279436,0.0170908147809248
-0.0171696125929202,-0.0289004410550853
-0.0101729708383656,0.0169540062339043
-0.00257208103693599,-0.0217862730396057
0.00457562272933737,0.0119832133118842
0.0112701404604545,-0.0114494487741256
0.0180653661993841,-0.021991485860136
0.0244703484080404,0.0045270239288534
0.0308879191176731,0.064077760280344
0.0365879452716418,-0.0117230658681663
0.0422627944236574,0.0019048189208237
0.0477739930629776,-0.0215278431651863
0.0530334216827666,-0.0344868724386963
0.0580536687840009,0.00733925453779335
0.0633634514076962,-0.0096480950482167
0.0675402689435008,0.021704399115773
0.0684818417283289,0.0159963464047632
0.0668427718129616,0.00787130150625251
0.0657198304376334,-0.0075047199547571
0.0655032611326177,-0.0140184367282674
0.0643425542543599,0.00122077618572319
0.062577599329227,0.0156543250372123
0.0609762949167894,-0.0319482589237973
0.0595638180190003,0.0404931024276921
0.0581891066241409,0.000947159091682415
0.0561346161765471,0.0282713329431718
0.0536395281947736,0.0209519521071617
0.0505905461700313,0.0152438993961518
0.050159972348414,0.0248434638726421
0.0499056375404687,0.0263863877241317
0.0489085811749061,0.0319576318881216
0.0473828077683279,0.0278609073021115
0.0456430298451482,0.00201125302860158
0.0448096239922809,0.0245014425050913
0.045461661254648,0.040546319481581
0.0459626365052964,0.0291986183330711
0.0451544076543823,0.0130169328095613
0.0441447627878432,0.0161711847860513
0.0440792554945462,0.0281877414500404
0.0433465576494915,0.01039472780153
0.0425635058005305,0.0143546438405212
0.0432533085658273,-0.0114950104329893
0.0436661643096398,0.0254971321685
0.0440286660495459,0.0133437669574903
0.0437491542396474,0.0269716517464804
0.0432808149151005,0.00998430216047022
0.041994223027077,0.0139442181994599
0.0401411485951082,0.00340218111345023
0.0388042027031785,0.02105838621494
0.0369259512692565,0.00971068506642958
0.0357778328919752,0.0273668901679195
0.0325903773564908,0.036966454644409
0.0310016614450298,0.00386582380839942
0.0298409545667719,0.017493708597389
0.0278242296221078,-0.0123842659886208
0.0256186771627952,0.0503891266128689
0.0211975485316077,0.0599886910893593
0.0146111977324513,0.0647542711908486
0.00856615247528722,0.0421272731673385
0.00355336429820123,0.0541438298313285
-0.00076705632517382,0.0540754255578188
-0.00270825026397857,0.0612579978468079
-0.00467462120473644,0.0370196716982978
-0.00763548372264276,0.0305059549247881
-0.0108103507571506,0.034465870963778
-0.0133306157408773,0.050510747940268
-0.0165054827753851,0.0472196874167578
-0.0202216553518852,0.0503739393932475
-0.0236734694078774,0.0905887382447378
-0.0267602169355494,0.0905203339712277
-0.0298973184671276,0.0743386484477175
-0.033084774002612,0.0251247363617069
-0.037493314132823,0.0645338711506973
-0.0434880053860809,0.046740857502187
-0.0503261262047685,0.144157804791177
-0.0557165694111513,0.0675513145801665
-0.0587026089310108,-0.00502685531834324
-0.0604172098522374,0.0585522013456467
-0.0621192222724875,-0.0196656169903632
-0.0627134466068,0.0713060177986262
-0.0602234882018548,0.0333714025876168
-0.056424325695347,0.0590842483141061
-0.052461512676144,0.0243722893530965
-0.0487756466784253,0.0992306428920861
-0.04386869608598,0.0629073558060763
-0.0389869224954879,-0.0829862437799343
-0.0345583349401521,0.0579365628840559
-0.0310109424531756,0.00952831486054537
-0.0288734620755741,-0.000208058162964098
-0.0282591903161366,0.0472577172510255
-0.0280477505879492,0.0165740786025153
-0.027999961372457,0.00844903370400518
-0.0307719963757149,-0.0286799174445045
-0.0334685003731134,-0.0126350404680148
-0.0352586323001994,0.0163004615084751
-0.0366711091979885,-0.024051145890035
-0.0391536086787855,0.0218033013989549
-0.0414221036429809,0.0273745455629451
-0.0439046031237778,0.0321401256644346
-0.0455940270430513,-0.0412437082965756
-0.0467673224222857,0.0110560514924146
-0.0493127644079655,-0.0115709465310953
-0.0507755953096608,0.0213928757578938
-0.052099952700614,-0.0656872472656161
-0.0530844205652,0.0792638797108745
-0.0556676280538095,-0.0674353839376358
-0.0575207024857783,0.0614024617888533
-0.0563021826794658,-0.0272889893596563
-0.0559900349434659,-0.0499159873831658
-0.0558415377201613,0.00480076459332329
-0.0565112930603332,0.00231536813231314
-0.0563627958370286,-0.0170889736411965
-0.0559751170951693,-0.0364933154147067
-0.0556377923572162,-0.0180314462507165
-0.0546836310714116,0.0229890166632734
-0.0527098012065054,-0.0947063407352371
-0.0524228304724585,0.0405768174912529
-0.0530548203097008,-0.042474985219757
-0.0532713896147165,-0.0852435848057677
-0.0537145519373103,-0.140902809391778
-0.0520680230977947,0.0475541769597125
-0.0482436835893339,-0.0290523132512976
-0.0445955830945449,-0.000116811274808143
-0.041778323664209,-0.0162984967983182
-0.0375889176274278,0.00860868486567223
-0.0360179197937716,0.00451196027966186
-0.0346105724728107,-0.159106248681348
-0.0324982690971624,0.0511036673576419
-0.0293159431385062,-0.0512840728533683
-0.0279211843185219,-0.000595641189378243
-0.0265390139995142,-0.0296679517128889
-0.0263023972693736,-0.0136230747363988
-0.0259147185275143,-0.060419994634909
-0.0256025707915143,-0.0459864457834189
-0.0252400690516081,-0.0178566078694289
-0.025595111867366,-0.0574025512054395
-0.0238604635210145,0.0182614663960508
-0.0210306155897021,-0.0688186566274591
-0.0176594621163974,-0.0769437015259694
-0.0152702117192647,-0.0141703089244798
-0.0146811169617804,-0.0319633225729898
-0.0152879297970695,-0.0553959846589997
-0.0152527290825539,-0.00793020924500987
-0.0166652059803431,0.0145599802314799
-0.0161390537277415,0.00724059939547012
-0.0149834764263119,-0.0468072970655401
-0.0131481200721479,0.00307547053594953
-0.0107966351779449,-0.00343824623756001
-0.0097543543853043,0.00777264636392974
-0.00866171958875747,-0.0221053282220807
-0.00726696076877316,-0.00767177937059099
-0.00567078593316384,-0.0439950664566007
-0.00227445545790608,0.0171669980198889
0.000958224504656338,-0.0135166406286211
0.00459373649846877,-0.0321153183396315
0.00758723494247651,0.0056824883243585
0.00995130833765615,-0.0225841581366513
0.011962903705492,0.0208532969648391
0.0129422419932498,-0.0452795604336713
0.0129270887038591,0.0481090665428186
0.0131385284320465,-0.059112658043192
0.0133373796592574,0.00446639862079826
0.0135488193874448,-0.0479701697152124
0.0128916525482495,-0.0407875974262218
0.012926853262765,-0.0311880329497325
0.012748049460679,-0.076373624723242
0.0124937146527337,-0.0200455446217523
0.0125289153672492,-0.0603971520202627
0.0128158861012961,-0.0242106734812723
0.0127503788079991,-0.0460320074422825
0.0119547384580616,-0.056574044528293
0.00723148580343647,0.00539368401069737
0.0029110651800614,-0.0333465952628126
-0.00144712094624334,0.00525687546367712
-0.0047604614914934,-0.0536250053723329
-0.00860251907775908,-0.023883839333343
-0.013300594730431,0.00505166264314627
-0.0165384042698217,0.0525174380571365
-0.020393050357064,0.0331130962836262
-0.0245624089687203,0.0257937154476159
-0.026994554445611,0.0490895689866062
-0.0294896424273845,0.0329078834630961
-0.0312671858534939,0.0304224870020859
-0.0326670742503065,0.0263257624160758
-0.0339033121344237,0.057678256580066
-0.0355549705507675,0.0398852429315553
-0.0374961644895723,0.0696264089705451
-0.0394373584283771,0.0558617156345357
-0.0434556550283146,0.0815745613610255
-0.0460640395188772,0.0323606492750153
-0.0486472470074866,0.0991623621890057
-0.0522123575722679,0.0225558719779956
-0.0573762077610727,0.0933859052044855
-0.0622127569244868,0.081232539993475
-0.0673262531093853,0.0682735107199647
-0.0722005677757291,0.102042997071455
-0.0772762984576979,0.0479951006104449
-0.082603799159198,0.128493102586935
-0.0881578928782762,0.0502752842509248
-0.0925538445075106,0.0969353956024143
-0.0976295751894794,0.0960613272664044
-0.101962584313831,0.0822966339303943
-0.106950195488964,0.0943131905943843
-0.111912629662144,0.0974674425708744
-0.116673647819698,0.132042592984864
-0.12217738753487,0.0812173527738539
-0.127341237723675,0.0883999250628438
-0.130767874777714,0.0923598411018333
-0.136246437490933,0.116461358703323
-0.142581018270558,0.0438831888048133
-0.149431727590222,0.0816809954688035
-0.156509029927464,0.0936975521327935
-0.163019849720761,0.115382077546783
-0.169266310993551,0.105645704523273
-0.175726776782941,0.0540148002497626
-0.182250185077215,0.107120224101253
-0.188521823351957,0.0667686167027426
-0.193295430010488,0.0779795093042323
-0.198358572191481,0.102081026905722
-0.202565696306067,0.101206958569712
-0.206256691880613,0.0922762496087022
-0.209884744950278,0.0462849937726923
-0.21249312944084,0.0687751832491823
-0.213200650283942,0.0687067789756722
-0.213832640121184,0.0694440387646616
-0.214263213942801,0.0782379391786517
-0.214630845259536,0.0765582067801415
-0.214532702040137,0.0909917556316318
-0.214887744855895,0.0329155388581212
-0.214084645581809,0.103745572084612
-0.214578161908309,0.0384183787486014
-0.214731788708442,0.0399613026000908
-0.215187539532013,0.0511721952015814
-0.214938334300896,0.000346954990571163
-0.214374416545364,0.12112816009206
-0.212702710703896,0.0372706933185507
-0.21065334983313,0.0412306093575411
-0.208175979929161,0.0548584941465307
-0.206579805093552,0.0580127461230205
-0.204316439706185,0.0249121152870104
-0.202846149880341,0.0240380469510001
-0.200847143013482,0.0215526504899902
-0.200006278236466,0.0214842462164801
-0.198158333381326,0.0770066622554697
-0.197619592627748,0.0543796642319598
-0.197697688422021,0.00436008808344968
-0.198870983801256,0.0405465666224393
-0.200535230718576,0.0638424201614291
-0.202690429173982,0.0629683518254195
-0.205021866643061,0.059677291301909
-0.205213258946123,0.0040180667158988
-0.205455005253092,-0.0169976031826108
-0.205910756076662,0.0594720784813791
-0.205485311831873,0.0328167601453689
-0.205059867587084,0.0230803871218587
-0.202960152712413,0.0334856156608491
-0.200142893282077,0.0229435785748383
-0.196079372255061,0.0277091586763284
-0.191650784699725,0.0292520825278184
-0.187020781128764,-0.0529940561206917
-0.181484405487491,0.0250869536682987
-0.174449998230007,0.0926943306447885
-0.168989153594593,-0.000831104878721706
-0.162332401366405,0.0176307642852681
-0.156065892668491,-0.00660756186324177
-0.149081839414913,0.00943731511324764
-0.14193413564864,-0.00835569853526225
-0.133728997800335,0.0431383971912273
-0.126606471036015,-0.0052698508322826
-0.118489452694546,0.0607261980192074
-0.111354337429249,-0.013463300004303
-0.105037474727429,0.0573667332221868
-0.0996018070939683,-0.040187022613823
-0.0937507189282808,0.00325043248766688
-0.0873583252206012,0.0128499969641566
-0.0815450025578434,-0.00736000887185292
-0.0765499324585623,0.026409477479637
-0.0710764993221717,0.0448713466436264
-0.0657163626945702,0.0093537236201163
-0.0600037480396249,-0.00924495409089379
-0.0550967974471797,-0.0278436318019037
-0.0496107758098126,-0.0182440673254143
-0.0450059492408048,0.0372783487135756
-0.0396332241122268,0.0275419756900655
-0.0345878000090393,0.010554626104056
-0.0292276633814378,-0.028185653169454
-0.0236535222372348,0.00155551286953556
-0.0208110858049458,-0.00254121171647462
-0.017817587360938,0.0312282746350154
-0.0143079603768912,0.0440504953615052
-0.0120823604924538,0.00853287233799452
-0.0102092386353601,-0.0269847506855151
-0.00901589583100076,0.0470679387909749
-0.00789808403250084,-0.0335668717325351
-0.00706980775646181,0.0227612083689548
-0.0065436555038603,0.0226928040954439
-0.00536290120047756,0.023430063884435
-0.00483674894787606,0.0451145892984244
-0.00388258766207143,0.0321555600249137
-0.00287807237236055,0.0602853979389043
-0.0023015661158528,0.0481320327278942
-0.00166211735446223,0.0359786675168838
0.00134396959052209,0.0407442476183738
0.00267578590562359,0.0761250620948637
0.0045740847646704,0.0986152515713538
0.00557860005438127,0.0477900113603433
0.00725030589584995,0.0420819586493336
0.00829258668849049,0.0984100387508231
0.009825819019217,0.0612810876023131
0.0121898924143966,0.104718542703803
0.0150197403457091,0.111901114992793
0.0186804293414746,0.0578532185317828
0.0219634633079433,0.108541650195773
0.0259010993251933,0.0883316443597626
0.0270566766266229,0.0705386307112525
0.0279730724094978,0.173595226437742
0.0284362821572165,0.0478432284142327
0.0279050003277868,0.102559980390722
0.0275121920090992,0.0879896229922125
0.026678786156232,0.136261062468702
0.0257698492975054,0.0572375800701923
0.0243447838987397,0.149014878921682
0.0237127940614974,0.131221865273172
0.0240501187994505,0.0360851016246614
0.0231915359446301,0.0787168926636518
0.0212629305068019,0.0907334493276416
0.0199385731158487,0.0793857481791315
0.0177204321555596,0.0229208595306213
0.0139790825771064,0.0599130021321117
0.0113203440826376,0.0670955744211009
0.00915255712625471,0.0283552951475913
0.00576368557514526,0.0887116955615812
0.00207269000059832,0.0741413381630706
-0.001693836579808,0.0684332854520609
-0.00611496521099556,0.0385553108660508
-0.00921430123964405,0.04976620346754
-0.0118604512331363,-0.00105903674346935
-0.0145947207334645,0.0278764652330205
-0.0180717117914099,0.0737309125220104
-0.0204660917653709,0.0712455160610007
-0.0230241222520272,-0.0295308960250096
-0.0260731042767694,0.10978058251398
-0.0290591437966289,-0.00630344675953018
-0.0319192983067227,-0.0023435307205405
-0.0349431033295118,0.0813771275059492
-0.0377654923366759,0.058750129482439
-0.0400843413047775,0.065127037708929
-0.0417108227191682,0.0425000396854188
-0.0449486322585589,-0.00671387240059079
-0.0479220832774418,-0.0357861829241008
-0.0522299153998403,0.0721043971773893
-0.0542340518435278,0.0285301335288792
-0.0563263077940514,0.00590313550536903
-0.0586577452631295,-0.0143068703306413
-0.0601079876638484,0.0492721863333481
-0.0614826990587078,-0.00719270231516134
-0.0629329414594266,0.0144918230988285
-0.064710484885536,0.0216743953878184
-0.065984488272583,0.0498042333018081
-0.0667045976166612,-0.0026323350342026
-0.068469552541794,0.0883392997547884
-0.0695799054161457,0.0214007782937778
-0.0707657892963567,0.0334173349577675
-0.0723670937087942,0.0696038134967576
-0.0741194601329505,0.0155559170357478
-0.0755067600287865,0.0162931768247374
-0.0790592820925913,0.0234757491137277
-0.080799060015771,-0.00398523328478309
-0.0819723553950055,0.0297842530667075
-0.0828687037527555,0.0820840128556969
-0.0843818886583572,-0.0315830242303129
-0.0859957815717713,-0.0227891238163236
-0.0872823734597948,0.0641541906601664
-0.088203898819498,0.0463611770116567
-0.0890373046723652,0.0607947258631469
-0.0895308209988653,0.00513550127713616
-0.0900872798302481,-0.00621219987137339
-0.090731858168467,0.0533385364801164
-0.0908854849685998,-0.0135999849808943
-0.0904600407238108,-0.0338099908169043
-0.0903996630073421,0.0942221908470862
-0.0900749267703657,0.0313119896985754
-0.0903796155822173,0.0143246401125653
-0.0903192378657486,0.00619959521405555
-0.090485453166858,0.00774251906554529
-0.0906013144640612,-0.0358317445829643
-0.0914598973188816,0.00277172614352506
-0.0924695421854207,0.0220392593700148
-0.0929882355138739,0.00102358947150505
-0.0932048048188896,0.0686309664479951
-0.0924142940457802,-0.0667890003255152
-0.0917496682824366,0.0314336110259742
-0.0894485373921397,0.0184745817524644
-0.0887335576248898,-0.00656940845854567
-0.0878297503429914,0.0860135544554441
-0.0863846375191009,0.00860140018193434
-0.0849395246952103,-0.0156369259665756
-0.0829027523254213,0.0414968181974139
-0.0808533914546557,-0.0447776407635957
-0.0793579246268589,0.0437770018378941
-0.0773589177599996,-0.0102708946231158
-0.0754983844038825,0.0653931229783736
-0.0736000855448357,-0.0490795781701362
-0.0723563887365701,0.00966549411885348
-0.0706846828951014,0.0643822460953438
-0.0689122690458202,0.0175853261968334
-0.0671902092004453,0.0328245391108229
-0.0651156713277266,-0.00511007610018702
-0.0648287005936798,-0.0365993788111965
-0.0641514863293595,0.0463156153527931
-0.0637260420845705,0.0116036563917825
-0.0646349789432971,0.00508993961827264
-0.0641465921936253,0.0380537619072626
-0.0636707939449301,0.0613496154462525
-0.063333469206977,0.0363056252352423
-0.0637262775256646,0.0571844865867323
-0.0643582673629068,0.0144158870007221
-0.065078376706985,0.0506023655397125
-0.0658110745520398,0.028781031578702
-0.0669969584322508,0.0802751273051918
-0.067628948269493,0.0528141449066822
-0.0681350530969696,0.0390494515706719
-0.0684397419088213,0.0736246019846614
-0.069776687800751,0.0840298305236512
-0.0708618636731495,0.0597915043751418
-0.0737220181832433,0.0806703657266313
-0.078457859338845,0.0765736411406209
-0.0840119530579232,0.0652259399921112
-0.0884582586910638,0.0764368325936014
-0.0933325733574076,0.0940930376950906
-0.0973256929553921,0.107720922484081
-0.101180339042634,0.116514822898071
-0.104682507102533,0.110001106124561
-0.108083967154619,0.116378014351051
-0.111233657187174,0.117115274140041
-0.114257462209963,0.11624120580403
-0.116223833150721,0.13470307496802
-0.118341266103197,0.03876064725701
-0.120282460042002,0.134566266421
-0.122022237965182,0.0942146590224895
-0.122289161274104,0.11025953599898
-0.122077721545916,0.164170623912969
-0.121199091265971,0.0915924540144589
-0.120572231005557,0.141475221615949
-0.119366299700221,0.10676326265494
-0.118726850938831,0.0946098974439288
-0.117092910600292,0.104209461920419
-0.116050629807651,0.102529729521909
-0.114592928482784,0.0517044893108989
-0.11271980662569,0.0758060069123891
-0.109877370193401,0.136968071388879
-0.106707632735722,0.127231698365368
-0.104582740859097,0.0377345831543585
-0.103427163557667,0.0811720382558489
-0.102548533277722,0.0625733605448384
-0.10209791203098,0.0890918703338276
-0.100929746228573,0.0769385051228183
-0.0997489919251907,0.0607568195993079
-0.101098526318097,0.080024352825798
-0.109006669719792,0.0388670813647876
-0.119294039806058,0.0895555130287776
-0.131318623027089,0.0395359368802674
-0.142587896189527,0.0451071810442576
-0.154474005899816,0.0893503002082473
-0.16535303553198,0.0626949818722373
-0.175073923074301,0.077128530723727
-0.183825496041426,0.0585298530127174
-0.191242687905035,0.056044456551707
-0.198219282234465,0.0664496850906973
-0.205485412086355,0.0494623355046866
-0.212600479926527,0.0679242046686766
-0.219841432776465,0.0420745503951662
-0.22617601355609,0.0855120054966567
-0.233442143407981,0.0983342262231462
-0.24085933527159,0.0450919938246361
-0.248754890172309,0.054691558301126
-0.256474206059356,0.0377042087151165
-0.264596353977653,0.0795303356916058
-0.27187507233052,0.0359560720430959
-0.277781644076942,0.0608632537070858
-0.284191755862426,0.073685474433576
-0.290903991671348,0.0800623826600656
-0.297175629946091,0.0864392908865552
-0.302389834138802,0.0613953006755451
-0.304658329102997,0.0742175214020359
-0.305756093476372,0.102347359316025
-0.306841269348771,0.074080712855015
-0.307687263702614,0.0651500038940044
-0.308092660522278,0.0723325761829953
-0.306609782195458,0.0666245234719848
-0.302382610655747,0.0617221348234746
-0.297903669096505,0.0479574414874644
-0.293966033079255,0.0607796622139549
-0.290204636075677,0.105022781377944
-0.287072664120927,0.0388899239794342
-0.284733767727701,0.0662140978309243
-0.282420048336427,0.061311709182414
-0.280874227504724,0.034656390846404
-0.278598273616381,0.0345879865728937
-0.277065041285654,0.0361309104243835
-0.276589243036959,0.0207548889633736
-0.277586299402521,0.0641923440648635
-0.278520413263201,0.0455936663538533
-0.280902204736186,0.0559988948928432
-0.283749770745303,0.0486795140568333
-0.286798752770045,0.0179958754083227
-0.289671495781115,0.0590163383223127
-0.292670123801952,0.0339723481113023
-0.295102269278842,0.0596851938377929
-0.297395941244991,0.0322242114392827
-0.29957631670235,-7.07553342274014e-05
-0.302058816183147,0.107819824767262
-0.304566492665897,0.0457152876812525
-0.307703594197475,0.0504808677827425
-0.310916226734913,0.0979466431967315
-0.314443571796765,0.0334251139232219
-0.317127487293186,0.0470529987122121
-0.319547044269101,0.0518185788137022
-0.321475649706929,0.0702804479776917
-0.32298883461253,0.00817591089168124
-0.325949697130437,0.0790059441181719
-0.328696555131741,-0.0266044523428386
-0.328271110886952,0.0587275340086515
-0.32177800917146,0.0328778797351411
-0.312628733749913,0.00702822546163157
-0.302484966751218,0.059327985250621
-0.292253080245687,0.0334783309771109
-0.282411437270429,0.046300551703601
-0.273463577864507,0.0430094911800906
-0.265472444532804,0.0187711650315805
-0.257556842206961,0.0452896748205703
-0.251479161023695,0.0331363096095603
-0.245665838360937,0.0217886084610507
-0.241249839306578,0.0579750870000401
-0.235197335125266,0.0450160577265302
-0.230088968517195,0.0240003878280196
-0.223255977275336,0.0835511241795102
-0.216183804514922,0.00130498553099978
-0.208280790690055,0.0818029875074896
-0.200478484873,0.0406457160464797
-0.192122285012977,0.0389659836479697
-0.184105974679321,0.0308409387494596
-0.176051898842735,0.0404405032259494
-0.169772801643844,0.0484287395774394
-0.162813925392219,0.0556113118664293
-0.155804695136688,0.031372985717919
-0.148808053382134,0.0570858314444088
-0.143372385748673,0.0304305131083987
-0.140479595312478,0.0778962885223892
-0.138367291936829,0.0496296420613788
-0.136443816075829,0.0721198315378681
-0.134608459721665,0.0486871694518584
-0.133087815891915,0.0139752104908488
-0.132108477604158,0.100918524967338
-0.131670444858392,0.044453636318828
-0.130200155032548,0.0468022242328181
-0.128704688204751,0.0829887027718081
-0.128014885439455,0.00879920474829829
-0.127199197664392,0.0377347067247878
-0.126421275392259,0.0811721618262778
-0.125618176118174,0.0972170388027675
-0.124928373352877,0.00530293140425747
-0.124880584137385,0.0785499568182472
-0.125588104980486,0.028530380669737
-0.126773988860697,0.0937207654587269
-0.126990558165713,0.0203369314977168
-0.12709383096194,0.0557177459742073
-0.129324560423205,0.0516210213881965
-0.13525630917158,0.0950584764896866
-0.14223290350101,-0.0210255527838231
-0.148995493313838,0.134399207005166
-0.155619609615924,0.0449020917941562
-0.162394787929729,0.0802829062706462
-0.168792311214237,0.0294576660596361
-0.174799590968471,0.089814066473626
-0.180882401728565,0.0365718340751162
-0.186096605921276,0.0622846798016059
-0.190354084039768,0.0807465489655962
-0.194133199121151,0.0250873243795854
-0.197811606194722,0.0943060294810752
-0.201200477745831,0.0499261017700655
-0.204350167778386,0.028910431871555
-0.207676096824612,0.0812101916605451
-0.210788021354237,0.054554873324535
-0.212716626792066,0.0601261174885255
-0.214519347220128,0.050389744465015
-0.216661957174558,0.0599893089415051
-0.219245164663167,0.0776455140429945
-0.221589190633222,0.0791884378944848
-0.224436756642339,0.071063392995975
-0.228001867207121,0.0194324887224644
-0.231504035267019,0.0797888891364543
-0.233772530231215,0.0466882583004445
-0.236834100756933,0.0611218071519342
-0.240512507830504,0.0538024263159239
-0.243385250841574,0.0505113657924141
-0.24601881233409,0.0641392505814036
-0.247557174241645,0.0519858853703936
-0.251172638810332,0.0793100592218835
-0.254725160874137,0.0582943893233737
-0.258743457474074,0.0791732506748637
-0.262774342574989,0.0581575807763535
-0.266616400161254,0.0540608561903428
-0.270005271712364,0.0531867878543326
-0.274388634840622,0.0917902585808233
-0.277815271894661,0.045799002744813
-0.28076354591159,0.0868194656588031
-0.28371181992852,0.0545244988852928
-0.286672682446427,0.0705693758617827
-0.289772018475075,0.102727534088273
-0.292758057994934,0.0527079579397623
-0.294976198955224,0.0913114286662522
-0.297143985911606,0.0936600165802421
-0.3000041404217,0.0484744248067322
-0.302788763925935,0.0395437158457224
-0.304767723367669,0.0402809756347118
-0.307829293893388,0.0893580791737024
-0.310387324380044,0.0627027608376917
-0.314493740486818,0.0505493956266812
-0.31959464817074,0.103654819478172
-0.325551573921068,-0.0253198347953384
-0.330501419593271,0.128493596868651
-0.33550161926938,0.0518871066576417
-0.340086398413263,0.0590696789466316
-0.344482350042498,0.0444993215481208
-0.348551000646342,0.0532932219621106
-0.35282106726581,0.0298605598761003
-0.355202858738795,0.0942452806025902
-0.356401331119982,0.0683956263290809
-0.35804040103535,0.0336836673680705
-0.360031948978061,0.0231416302820603
-0.358926725680537,0.0754413900710504
-0.354485549624225,0.000446227985040321
-0.348042801912639,0.0898065346490295
-0.342040651735233,0.0357586381880198
-0.33686934262228,0.0654998042270093
-0.332214162049366,0.0428728062035
-0.326677786408092,0.0250797925549891
-0.321305061279514,0.0967154898439794
-0.314975610076717,0.0338052886954693
-0.309048990905171,0.0393765328594595
-0.303034252226788,-0.0162826917265504
-0.297195752562077,0.0891908961874386
-0.29009840279971,0.0246693669139287
-0.282950699033437,0.0552161970154192
-0.274846269192944,0.0293665427419089
-0.266452303829991,0.0429944275308988
-0.257630329433835,0.050176999819888
-0.249148244564046,0.0106310564838788
-0.240615805690351,0.0637364803353685
-0.232196663325445,0.0282188573118584
-0.223009622400968,0.054737367100848
-0.21441424102239,0.0667539237648384
-0.204824368066664,0.026402316366328
-0.196631818719336,0.0311678964678178
-0.185594268151304,0.049629765631808
-0.176092514702414,0.0237801113582976
-0.165143083641219,0.0607722539597875
-0.154495776603461,0.0413679121862776
-0.143835881064727,0.0251862266627672
-0.13340257854357,0.0565387208267576
-0.122088080954055,0.0234380899907467
-0.110471459341102,0.023369685717237
-0.0980365851646721,0.0466655392562268
-0.0871249196064066,-0.00254837282978276
-0.0747403994338832,0.0441117385217065
-0.0632622513316724,0.0625736076856965
-0.0513560941962584,0.0246389924746866
-0.0390093395266647,0.0358498850761764
-0.0262219873228913,0.0269191761151665
-0.0148949012323992,0.0357130765291562
-0.00253555806182899,-0.000610210556853646
0.0087034085218272,0.022685642982136
0.0212138137041162,0.0862646996461259
0.0325408997946083,0.000795904747615733
0.044283406417327,0.0740429301616057
0.0551698949736394,0.00388175245059591
0.066396273056319,0.0376512388020858
0.0755455484778658,0.0416111548410752
0.085374602952147,0.0173728286925653
0.0967520430465454,0.0261667291065557
0.108847027696608,0.0349606295205452
0.121370021379873,0.0429488658720349
0.134837152636381,0.0324068287860249
0.148707115924139,0.0218647917000151
0.162551902209944,0.0290473639890052
0.176711401020162,0.0354242722154948
0.190858311329404,0.0716107507544848
0.203998141560521,0.0522064089809747
0.218308702382459,0.0730852703324643
0.232808090719045,0.0472356160589543
0.247169005544888,0.0334709227229438
0.261202619345342,0.024540213761934
0.275550945670209,0.00835852823842395
0.289672678977498,0.026820397402414
0.304159478813107,0.0517275790664035
0.317979088096958,0.0726064404178937
0.329633475212841,0.0250038564568837
0.341476689843372,0.026546780308373
0.354427692559841,0.0506482979098636
0.367101748254825,0.0594421983238538
0.378756135370708,0.0489001612378432
0.387729171778583,0.0383581241518333
0.397759642268489,0.0229821026908232
0.406506085658786,0.059974245292313
0.415353237056895,0.0309019347688029
0.422614237331958,0.0372788429952924
0.428654153012294,0.0372104387217825
0.433624046109622,0.0371420344482727
0.437335089109294,0.0354623020497627
0.440265645048418,0.0579524915262522
0.44280595745727,0.0296858450652422
0.44432660128702,0.0223664642292325
0.445582886596262,0.0730548958932221
0.446385985870348,0.0173956713072123
0.446975080627832,0.0584161342212021
0.447639706391176,0.0639873783851915
0.448191035645731,0.0268584272366821
0.449031900422746,0.0429033042131715
0.447871193544488,0.0742557983771612
0.446206946627168,0.0443778237911513
0.442881017580941,0.0410867632676413
0.438938251986863,0.026516405869131
0.435058428897668,0.0659255406581213
0.430725419773316,0.0344362379471116
0.425171326054238,0.0601490836736005
0.419667586339066,0.0504127106500908
0.414327497136589,0.0447046579390805
0.41013296152298,0.00838137085307022
0.404238978277534,0.0630981228295598
0.398621942053573,0.0444994451185499
0.39294196332473,0.0549046736575397
0.386720679053894,0.0661155662590297
0.379958089241065,0.0660471619855204
0.373799747475112,0.0442258280245097
0.368535189278495,0.0240158221885001
0.36260344053012,0.0859835507274896
0.355601669198737,0.0746358495789792
0.349015318399581,0.0528145156179689
0.342303082590659,0.038244158219459
0.335477550272948,0.0704023164459492
0.328702371959143,0.0332733652974391
0.323777703288893,0.0178973438364289
0.317631950023916,0.0742254239379181
0.311108541729643,0.0330681524769089
0.303917942883612,0.0781169357033987
0.298640796186018,0.037765328304888
0.292004091382955,0.0675064943438788
0.285442917585752,0.0690494181953688
0.278755858778783,0.0359487873593583
0.27182961845326,0.0479653440233481
0.265092205642385,0.0438686194373381
0.258014903305142,0.0671644729763282
0.250018640396611,-0.0303892828596824
0.241304832932416,0.0944202425543075
0.23262879097115,0.0403723460932976
0.223499562974728,0.0306359730697872
0.214483631487095,0.0426525297337775
0.205706881518017,0.040972797335267
0.196199998492298,0.00303818212425697
0.187347717517361,0.0416416528507473
0.181428557269962,0.081856451702237
0.173407117359478,0.0527841411787265
0.165813686482196,0.0438534322177168
0.15838390611761,0.00511315294420675
0.150878594747165,0.0421052955456964
0.144883903493907,0.0678181412721869
0.135276312460376,0.0604987604361762
0.128060536612392,0.00242254366266653
0.12006427370386,0.0933941784516563
0.112936617362712,0.066738860115646
0.106085908043048,0.0884233855296356
0.09924778722436,0.0198735359436261
0.0926866134271568,0.0649223191701159
0.0862765016416724,0.0592142664591061
0.0796020313356802,0.0381985965605955
0.0740605261175785,0.0687454266620857
0.0683805473887348,-0.00222141511142471
0.0625369181471956,0.0710256103025657
0.0564666958880784,0.082236502904055
0.0505853011436096,0.0443018876930453
0.0438982423366408,0.0160352412320347
0.0393134631927579,0.0933105869585248
0.0347664495518047,0.091630854560014
0.0308992149635859,0.0158300284115046
0.0278879984417733,0.0753807647629943
0.0256320919785545,0.0793406808019844
0.0231495924977576,0.0301267687159747
0.0207803895257497,0.0220017238174647
0.0190657886045231,0.0718844914189537
0.0170742406618121,0.0331442121454441
0.014969396210312,0.0733590109969337
0.0127386667490463,0.00400349734842401
0.0108352383131713,0.101420444637413
0.0118397536028821,0.0642914934889035
0.012038604830093,0.0779193782778934
0.0111170794703898,0.0544867161918831
0.0100319035979913,0.0866448744183732
0.00827953717383502,0.0164836967073636
0.00351851901628028,0.0913420502463531
0.00169062158626459,0.0413224740978432
-2.39793349620376e-05,0.0702579760743326
-0.00160010674544647,0.00493078273832262
-0.00373012819889965,0.0950967534648126
-0.00559579113184503,0.0652187788788026
-0.00695791402572792,0.0474257652302925
-0.0087480459528139,0.0409120484567826
-0.0101101688466968,0.0392323160582717
-0.0109309861985875,0.00290902897226269
-0.0123560515973532,-0.0245519534262478
-0.014813374076197,0.0398327673002418
-0.016313970480822,0.127581745839232
-0.0173236153473611,0.0413072868782219
-0.0191137472744471,0.105692007604711
-0.0203877506614941,0.0959556345812018
-0.0218883470661191,0.0556040271826916
-0.0229609344375411,-0.0121401583408183
-0.0239328138011505,0.115086359260671
-0.023809493579799,0.0159212752996613
-0.0245547799258303,0.0545247460261507
-0.025577013293346,0.0407600526901408
-0.0259446446100804,0.0753352031041308
-0.0263248644277914,0.00195136914312077
-0.0267050842455024,0.0776153867446105
-0.0271986005720025,-0.0134930565913993
-0.0299958125772135,0.0525029922600902
-0.0307159219212917,0.0894951348615799
-0.0318010977936902,-0.00966994909942964
-0.0314889500576902,0.11111125600206
-0.0320831743920028,0.0385330861035501
-0.0325766907185029,0.0126834318300401
-0.0317358259414873,0.10123807443153
-0.0324055812816592,0.0633034592205197
-0.0333900491462453,0.03745380494701
-0.0341353354922766,0.0841139162984992
-0.0356359318969016,0.0880738323374891
-0.0365448687556282,0.0356372640014793
-0.038083230663183,0.0371801878529696
-0.0393949995531596,0.0814233070169595
-0.0410844234724331,0.0442943558684485
-0.0429374979044019,0.0482542719074393
-0.0451934043676207,0.0167649691964293
-0.0470590673005661,0.0440891430479187
-0.0494534472745271,0.0230734731494086
-0.0516715882348162,0.0632882720008984
-0.0537386671833866,0.0261593208523886
-0.0566869412003163,0.0591231431413782
-0.0597736887279883,0.0518037623053681
-0.0615008781501914,0.0452900455318582
-0.0643484441593087,0.0347480084458479
-0.0670701251586603,0.0717401510473378
-0.069905102666801,0.0499188170863282
-0.0720854781241604,0.041793772187818
-0.074605743107887,0.0505876726018071
-0.0760559855086059,0.0360173152032972
-0.0785762504923325,0.0335319187422875
-0.0797117803686372,0.0785807019687771
-0.0817914478181842,0.0245328055077672
-0.086464346468903,0.0518569793592565
-0.0896140365014577,0.0429262703982468
-0.0922727749959266,0.0662221239372368
-0.0949441019913719,0.0355384852887267
-0.0965328179028329,0.0499720341402164
-0.0973662237557002,0.0490979658042066
-0.0993955372013409,0.0538635459056964
-0.101802505676278,0.0328478760071864
-0.104310182159028,0.0472814248586762
-0.106893389647638,0.0319054033976663
-0.108998234099138,0.0535899288116559
-0.111581441587747,0.0349912511006462
-0.113572989530458,0.0437851515146359
-0.116055489011255,0.0396884269286254
-0.118663873501818,0.0436483429676162
-0.11969869537031,0.0459969308816057
-0.122873562404818,0.0370662219205949
-0.125494535396357,0.0176618801470855
-0.128014800380084,0.0433747258735757
-0.129867874812053,0.0191363997250656
-0.131746126245974,0.0343756126390553
-0.1340523867131,0.0109429505530453
-0.135955815148975,0.0326274759670345
-0.138085836602428,0.0494780170060244
-0.140505393578342,0.0397416439825144
-0.143189309074764,0.0203373022090044
-0.14453884346767,-0.0135689926895056
-0.146933223441631,0.0258401420994845
-0.148685589865788,0.0281887300134741
-0.150463133291897,0.00959005230246401
-0.151573486166249,0.00791031990395399
-0.152822312551342,0.059404415630444
-0.154675386983311,0.0085791754194332
-0.156641757924069,0.0334863570834238
-0.159426381428304,0.0173046715599136
-0.161342398365155,0.0107909547864034
-0.162503105243413,0.0373094645753937
-0.163462396106046,-0.00223647876061628
-0.164383921465749,0.0258933591533734
-0.165192150316663,0.0330759314423633
-0.165899671159765,0.0225338943563531
-0.166644957505796,0.0321334588328429
-0.167704956376241,0.0465670076843332
-0.168601304733992,0.024745673723323
-0.169057055557562,0.0488471913248129
-0.169135151351835,-0.0350102754486974
-0.169213247146109,0.0583783515277927
-0.169316519942336,0.0454193222542823
-0.168991783705359,0.0252093164182726
-0.168667047468383,0.0525334902697619
-0.168203837720664,0.00815356255875227
-0.167300030438766,0.0193644551602419
-0.166295515149055,0.0732755430742317
-0.165429473370086,0.0442032325507214
-0.165708985179985,0.0618594376522118
-0.165270952434219,0.0263418146287014
-0.164329379649391,0.0359413791051916
-0.165276082011047,0.0664882092066817
-0.165102407785789,0.0422498830581717
-0.164903556558579,0.0695740569096607
-0.163244439218086,0.0421130745111509
-0.162730875466461,0.0468786546126407
-0.163060741280266,0.0315026331516308
-0.162358350013993,0.0402965335656205
-0.161681135749673,0.0587584027296103
-0.162690780616212,0.0514390218936001
-0.162063920355798,0.0497592894950902
-0.161651064611985,0.0432455727215804
-0.161049381353524,0.0568734575105704
-0.159843450048189,0.0358577876120603
-0.158687872746759,0.0575423130260498
-0.157985481480485,0.05666824469004
-0.15633895264097,0.0461262076040294
-0.154956782321962,0.0049689361430196
-0.153687908511744,0.0766046334320096
-0.152507154208361,0.0459209947834994
-0.150936156374705,0.0313506373849896
-0.149453278047884,0.0667314518614788
-0.147580156190791,0.0698857038379694
-0.147268008454791,0.0512870261269591
-0.144450749024455,0.0729715515409488
-0.142565038666385,0.0285916238299389
-0.140603797302455,0.094587672681429
-0.139095741973682,0.0767946590329186
-0.137940164672252,0.0614186375719086
-0.13628104733176,0.0162330457983985
-0.134508633482479,0.0951197196498886
-0.13279916213808,0.0612134247513782
-0.131190398801494,0.0418090829778683
-0.128662674893619,0.0828295458918577
-0.127293093075588,0.0376439541183479
-0.125470325222401,0.0440208623448376
-0.122476826778393,0.0294505049463278
-0.120817709437901,0.118005147547817
-0.119913902156003,0.00756076671180753
-0.119664696924885,0.104172049938297
-0.117804163568768,0.106520637852287
-0.116359050744878,-0.0812674929837231
-0.115153119439542,0.116857462117767
-0.1138968341303,0.103092768781757
-0.112401367302503,-0.0291045417417531
-0.110842957969823,0.106984280547237
-0.109133486625425,0.0940252512737265
-0.10737366127712,0.0198357532502167
-0.105739720938581,0.0536052396017063
-0.104483435629339,0.0664274603281964
-0.102434074758574,0.183986009179686
-0.100007058858511,-0.0118587622813235
-0.0979199324848159,-0.0514047056173338
-0.0961475186355347,0.0798501322966557
-0.0947527598155504,0.110396962398146
-0.0929425804633395,0.0152601987496357
-0.0912582861208943,0.0280824194761262
-0.089171159747199,0.0127063980151156
-0.0867441438471366,0.0247229546791057
-0.0846444289724648,-0.0244909574069045
-0.0823558865831445,0.0278088023820856
-0.0799162821821055,0.00759879654607484
-0.0777158592996212,0.00189074383506496
-0.074936365372215,0.0525791754990552
-0.0727107654877776,-0.135208955336955
-0.0704851656033401,0.0661386560145349
-0.0683854507286683,-0.0362490841964749
-0.066185027846184,0.0136336834050142
-0.0658351146072544,-0.0621671427434956
-0.0640501122569966,-0.070292187642006
-0.0619378088813483,0.0166511268344845
-0.0601150410281608,-0.141327433689026
-0.0578013216368874,0.0374615839124638
-0.0550218277094813,0.0019439608889536
-0.0525570463064891,-0.052909599634556
-0.0499915568956845,-0.0505610117205666
-0.047652660502458,0.010601052755924
-0.0460942511697784,-0.0249165702675861
-0.0442211293126847,-0.0999117323535968
-0.0420081179292238,-0.0991744725646068
-0.0406385361111926,0.0417483340993826
-0.0387780027550755,-0.0501657732991268
-0.0370685314106771,-0.0623191385101369
-0.0357115380936225,0.0673243712788531
-0.0342160712658257,-0.288847548619657
-0.0325821309272867,0.186425843981832
-0.0317412661502711,-0.163300763416677
-0.0307745163634899,-0.0143213161276872
-0.0298707090815915,0.0557030530363021
-0.0283248882498885,-0.0257374215497077
-0.0272951959582245,-0.0531984039482173
-0.0270334022261308,0.0563035042782719
-0.0256386434061465,-0.179824470307738
-0.0242061190832325,0.156069039481252
-0.0233023118013341,-0.142095067917258
-0.0233678190946311,0.0729488324967315
-0.0218723522668342,-0.104365665526779
-0.0208174829732171,-0.0174223510502888
-0.0199514411942484,-0.052134310011299
-0.0194756429455532,0.0476996294651912
-0.0207748233345533,0.00493102987918087
-0.0213564591678893,-0.0257526087693293
-0.022089157012944,-0.0153473802303385
-0.0212357037349519,-0.0379743782538491
-0.0221698175956316,-0.0501277434648592
-0.022625568419202,0.0247306100741303
-0.023610036283788,-0.134053614511879
-0.0237636630839209,-0.0358310031603897
-0.0249999009680381,-0.00850682930889923
-0.027369103940046,-0.0440244523324096
-0.028756403835882,-0.0158946144184199
-0.0297156946985149,0.02432018443307
-0.030838636073843,-0.0700109151529406
-0.0307656698563978,0.0604382586985497
-0.0317501377209838,-0.0346985049499601
-0.0328101365914292,-0.0130139795359702
-0.0339456664677339,-0.0275843369344802
-0.034842014825484,-0.0526283271454909
-0.0356376551754215,-0.0502797392315003
-0.0359549324882497,-0.140582518505011
-0.0368009268420935,0.164695756908979
-0.0376469211959374,0.012356844822969
-0.0390342210917733,-0.064249645388041
-0.0397165649329218,0.158045231588449
-0.0404870282809063,-0.274664774247561
-0.0414714961454923,0.125681860541428
-0.0429091500452345,-0.00409845779458143
-0.0445104544576721,0.0900958332444082
-0.0463635288896409,-0.0582147585291017
-0.0466933947034457,0.0367851965723883
-0.0488863586617817,-0.0543232467636212
-0.0505883710820317,-0.105148486974632
-0.0529575740540396,0.153401272814358
-0.0549113564938209,-0.0988399830216524
-0.0574316214775475,0.121037901767338
-0.0610974400501414,-0.0619162446936723
-0.0640708910690242,0.0999538275953172
-0.0668429260722821,0.037043626446807
-0.0696527265784697,-0.228088254389203
-0.0723618190768447,0.000651935087286865
-0.0756751596220948,0.0666479839387776
-0.0783590751185168,-0.141281748459733
-0.0806653355856418,0.0270336363292569
-0.0826946490312825,0.0221312476807468
-0.0850764405042669,0.0405931168447362
-0.0872064619577201,-0.0642116155537732
-0.0897393154424233,0.0565695895477163
-0.0913783853577906,0.130622279024207
-0.0935209953122203,-0.0426638986868035
-0.0951222997246579,-0.0814041779603141
-0.0967865466419782,0.117526441203676
-0.0981612580368377,-0.021116181819834
-0.10036681049615,0.151227523281656
-0.101791875894916,-0.0567022091168543
-0.103519065317119,0.242130753797136
-0.103672692117252,0.0640105917111255
-0.105550943551174,0.138063281187616
-0.106862712441151,0.162970462851605
-0.107897534309643,0.116979207015595
-0.107535032569737,0.0597086543045848
-0.109098571479244,0.244942984406075
-0.109541733801838,0.161085517632565
-0.110060427130291,0.123956566484055
-0.110050403417729,0.249571755960545
-0.110115910711026,0.0940101876245346
-0.109778585973073,0.293746470851024
-0.109529380741956,0.0165296290775148
-0.109657830540136,0.209820599804004
-0.109534510318784,0.118712156467994
-0.109423778598409,0.180679885006984
-0.108822095339948,0.179000152608474
-0.108950545138128,0.141065537397464
-0.108764282411894,0.186114320623954
-0.107419877595816,0.097422869475444
-0.107359499879347,0.190811496451933
-0.107538303681433,0.0771444593659238
-0.107994054505003,0.290577031654913
-0.10890299136373,-0.0261173491810967
-0.108741905639449,0.342808387170393
-0.10831646139466,0.174356193834383
-0.108293849181121,0.139644234873373
-0.107994289946097,0.134741846224863
-0.10778285021791,0.282915629451353
-0.107772826505348,0.0161724204903429
-0.10759915228009,0.282778820904333
-0.107161119534324,0.131245572880823
-0.106622378780746,0.185156660794812
-0.106398350551582,0.107744506521303
-0.106098791316559,0.147959305372792
-0.105572639063957,0.175283479224282
-0.104870247797684,0.195356676513272
-0.104507746057778,0.159839053489762
-0.104434779840332,0.0445606882787519
-0.103757565576012,0.235434666817742
-0.102375395257004,0.0484522000442322
-0.100628158409676,0.276386725458221
-0.0996739971238717,0.136132774309711
-0.0985058313214655,0.147343666911201
-0.0968215369790203,0.199643426700191
-0.0946462910984891,0.069863108364181
-0.0929997622589735,0.17291970409067
-0.091063697896997,0.138207745129661
-0.0899584745994736,0.132499692418651
-0.0887021892902315,0.211386366270141
-0.087659908497591,0.13316854793413
-0.0863155036815129,0.221723190535621
-0.0855627584113333,0.0814692393871103
-0.0849233096499427,0.1063764210511
-0.0835663163328881,0.0426605558400899
-0.0823352080255991,0.16183043281658
-0.0807642101919429,0.0441350754180698
-0.0794323938768414,0.25192799926956
-0.0775592720197477,0.10039475124605
-0.0765421682290603,0.254208182910039
-0.0753362369237244,0.0317764973865298
-0.074319133133037,0.13322176498802
-0.072685192794498,0.138793009152009
-0.0720709210350605,0.0799111283159993
-0.0711167597492559,0.123348583417489
-0.0708927315200919,0.099915921331479
-0.0699637472362404,0.158660993620469
-0.0696390109992639,0.0167957143469591
-0.0699059343081858,0.151273208510949
-0.0700847381102718,0.0899743354874385
-0.0698607098811078,0.182557298401428
-0.0715753108023345,0.105145144127918
-0.0719807076219986,0.126829669541908
-0.0724238699445924,0.129983921518398
-0.072615262247655,0.0308188375573878
-0.0718876939794285,0.186243597346378
-0.0715251922395223,0.113665427447868
-0.0723711865933661,0.125681984111858
-0.0720212733544365,0.157840142338347
-0.0716335946125772,0.210945566189837
-0.0716109823990382,0.223767786916328
-0.071449896674757,0.0166437185803172
-0.0710873949348508,-0.100245974755693
-0.0713417297427962,0.250149488158297
-0.0715582990478118,0.0647783495097867
-0.0714349788264604,0.146082015548777
-0.0708710610709292,0.171794861275267
-0.0707980948534839,0.0661844648142566
-0.0707125401350621,0.0669217246032466
-0.0704759234049215,0.0741042968922364
-0.0701134216650153,0.156213626993727
-0.0696879774202263,0.0715504961577158
-0.0691114711637186,0.0666481075092064
-0.0685223764062343,0.00937755479819585
-0.067845162141914,0.134992744274686
-0.067016885865875,0.0801391837511756
-0.0661760210888595,0.141301248227666
-0.0659268158577423,0.0187719064541554
-0.065539137115883,0.109743541243146
-0.0648115688476565,0.102424160407136
-0.0645120096126332,0.143444623321126
-0.0639103263541723,0.0893967268601153
-0.0631072270800864,0.169894728836605
-0.0626188403304146,0.123097808938095
-0.061777975553399,0.0883858499770852
-0.0612895888037272,0.0286983050785743
-0.0599074184847195,0.110001971117565
-0.0586133676725477,0.0777070043440541
-0.0577976798974852,0.154176686008045
-0.0559245580403915,0.121881719234534
-0.0549074542497041,0.233800619648524
-0.0550107270459307,0.0186199106875144
-0.0544090437874698,0.265890373601504
-0.054008776544634,0.0313737271404942
-0.053180500268595,0.0748111822419844
-0.0526795250179466,0.085216410780974
-0.0521407842643685,0.121402889319964
-0.051299919487353,0.090719250671454
-0.050383523704478,0.0729262370229433
-0.0503483229899625,0.0623841999369334
-0.0499858212500563,0.0832630612884238
-0.0494848459994079,0.0799720007649131
-0.0496258842985642,0.116964143366403
-0.0492130285547518,-0.0716296515321074
-0.0486868763021503,0.141802920756883
-0.0476697725114628,0.00154896960837292
-0.0472569167676504,0.140860448147363
-0.0468062955209083,0.0537803251238528
-0.046330497272213,0.108497077100343
