0.0166748836385978,-0.0260519210950576
0.0111438285927066,-0.0259544583072002
0.00789917732858057,-0.0258218464499493
0.00600025065236666,-0.0263760895348706
0.00494295518430004,-0.0267878794625422
0.00377310370750189,-0.0272397170190515
0.00152475503592732,-0.027073676873493
0.00188767805230425,-0.027252921326149
0.00483273083156505,-0.027101893554426
0.00784260019329764,-0.0268632936019965
0.0123732912626194,-0.0270632551305452
0.0169653965885406,-0.027279329940344
0.0171056506916355,-0.0271218153404205
0.0161600097539697,-0.0270047970822629
0.0122018857999996,-0.0268963043697403
0.0172111531503774,-0.0269584695620823
0.0278600689382551,-0.0268817271574415
0.0326241341826545,-0.0265271695588351
0.0326943305411845,-0.0260059228438493
0.0307328523073231,-0.0264848108271394
0.0280357677555269,-0.0262135977867227
0.026564693733622,-0.0261924184208748
0.0317491054454127,-0.0261156760162339
0.0374589502414426,-0.0264278748831447
0.0385449838961683,-0.0263233509591072
0.0400163351460026,-0.0264132976708456
0.0441148518170325,-0.0262254291886185
0.0479681663820842,-0.0260375607063913
0.0524870295205054,-0.0259330367823538
0.059843231313818,-0.0273842779445232
0.0624705353489784,-0.0275020061756582
0.0611395768162039,-0.027508608329207
0.0617001773866902,-0.0270984876918074
0.0588980062180463,-0.0270217452871665
0.0556054308374458,-0.0267227507273532
0.0545547032829322,-0.0268126974390916
0.0520677919648316,-0.0267637365538472
0.0501413426032528,-0.026770338707396
0.0448871503748262,-0.0264435626281861
0.0398081025078127,-0.0242554247494072
0.0390726348038425,-0.0248454388102836
0.0394230621406333,-0.0248798224832289
0.0455532534040545,-0.024858643117381
0.0540654079826931,-0.0244485224799815
0.0632080822624187,-0.0242884355171509
0.0655901841916008,-0.0238783148797513
0.0654852361887177,-0.0238849170333001
0.0696187817320302,-0.0243915865359867
0.0721409991503427,-0.023870339821001
0.0680427597072421,-0.0240714126103256
0.0642597801146851,-0.0239668886862881
0.0642599187286498,-0.0238623647622507
0.0628939313235927,-0.023646714760627
0.0593211249647313,-0.0239311321081412
0.05252566235587,-0.0238266081841038
0.0429979477089651,-0.0236387397018768
0.0362024851001037,-0.0237286864136151
0.0299674844477641,-0.0239297592029397
0.0211403472465114,-0.0230195712164023
0.014975404338737,-0.0228317027341751
0.00765450864563653,-0.0229216494459135
0.002575460778623,-0.0229282515994623
-0.00313410678947747,-0.0226570385590454
-0.00982448278149102,-0.0225802961544045
-0.0127317405669828,-0.0226424613467463
-0.0193170299421485,-0.0220656515929674
-0.0260424348064447,-0.0219055646301368
-0.0339237924560669,-0.0222455450164442
-0.0424006409344935,-0.0243357611247343
-0.0493362190324853,-0.0237589513709554
-0.0558864795353685,-0.0240711502378662
-0.0610355851469472,-0.0241055339108115
-0.0616659662340695,-0.0246399849328947
-0.0628568092777135,-0.0252855620325641
-0.0688816366963574,-0.0260978282486129
-0.0752917817101102,-0.0262989010379375
-0.0773583465608194,-0.026694444463038
-0.0741705805691373,-0.0268399542135695
-0.069756804047564,-0.0269021194059113
-0.0666741246727298,-0.0271031921952359
-0.0643971093603955,-0.027332046503957
-0.062050036303496,-0.0268385813083678
-0.0609990315210531,-0.0264006791515718
-0.0599830556108928,-0.0259349954753791
-0.0591071951898628,-0.0265805725750485
-0.0581262481519851,-0.026420485612218
-0.0558142039673683,-0.0260659280136115
-0.0513303697012297,-0.0260725301671603
-0.0458657270111781,-0.0262736029564849
-0.0411366906390612,-0.0261690790324475
-0.0379839535196618,-0.0263145887829789
-0.0355317938459145,-0.0264878800529071
-0.033464951767276,-0.0261888854930937
-0.0264240098245069,-0.0259176724526771
-0.0172112778002162,-0.0263409973971741
-0.00918952743353406,-0.0268754484192573
-0.0035147115097868,-0.0268820505728061
-0.000397003262669976,-0.0270831233621307
-0.000466922393270437,-0.0268396918411104
0.000899342239716001,-0.026790730955866
0.00177520266074594,-0.0270473667839838
0.00230077435894982,-0.0270817504569291
0.00338680801367542,-0.026393814625564
0.00405249520100971,-0.0263448537403197
0.00387748945356134,-0.026184766777489
0.00510363859741735,-0.0258579906982791
0.00808123135540377,-0.0262813156427762
0.0161029817220859,-0.0266212960290835
0.0222331729855071,-0.0264612090662529
0.0237745819799066,-0.0264400297004051
0.0242300959335452,-0.0267800100867125
0.0261568225230534,-0.0278145284579336
0.0295547617484311,-0.0281822903636375
0.033302989696635,-0.0280222034008069
0.0354398895198388,-0.0283066207483212
0.0356502013674992,-0.0277298109945424
0.0308864133510291,-0.027930883783867
0.0244762683372764,-0.0282708641701743
0.0194322493425454,-0.0286941891146713
0.0199227921684667,-0.0283674130354614
0.0260880123041706,-0.0282906706308204
0.0345651380105265,-0.0289362477304899
0.0393292032549261,-0.0298040769853317
0.0459497987303038,-0.0302274019298287
0.0540416068415511,-0.0303451301609637
0.0617480973576897,-0.030435076872702
0.070645569531437,-0.0304138975068542
0.0803487057676844,-0.030420499660403
0.0857082618408882,-0.0305660094109345
0.0911729045309399,-0.0307948637196556
0.091838591718274,-0.0311626256253596
0.0949562999653909,-0.032058236399598
0.10024579829403,-0.0322593091889225
0.101542005182451,-0.0327104156528162
0.102593009964894,-0.0331059590779167
0.0996507233071193,-0.032890309076293
0.0976191873286927,-0.0327857851522555
0.100912039937223,-0.0331535470579594
0.102173217953361,-0.0335213089636633
0.101507807993956,-0.0345836088542811
0.0973745396785732,-0.0342568327750712
0.0921553763224292,-0.0346523762001716
0.0832581813766113,-0.03474232291191
0.0705778682242717,-0.034915614181838
0.0569517755203016,-0.0356445358396972
0.0472138876397011,-0.0354844488768666
0.0371257110362744,-0.0354354879916222
0.0264420436040434,-0.0349698043154295
0.0158284339163777,-0.0355320368569093
0.00521482422871199,-0.0346496303897683
-0.00207104259210591,-0.0353507705282308
-0.00329691450803256,-0.035079557487814
-0.0100573482446114,-0.0353361933159317
-0.0191647164241248,-0.0360095519349977
-0.0301986725791818,-0.0364884399182879
-0.0393760985032606,-0.036717294227009
-0.043929713286035,-0.0371128376521094
-0.051390724468266,-0.0370916582862615
-0.0594822553515839,-0.0372649495561896
-0.0679941327022931,-0.0367714843606005
-0.077696991710611,-0.0363335822038043
-0.0826709529607767,-0.0364790919543359
-0.085087806534312,-0.0363190049915052
-0.0849125235589342,-0.036325607145054
-0.0848423272004044,-0.0367767136089475
-0.085087390692418,-0.0369500048788756
-0.0823900289126925,-0.0371510776682002
-0.078431627730793,-0.0371021167829559
-0.0738777357200892,-0.0364141809515908
-0.0699193345381897,-0.036643035260312
-0.0672219727584641,-0.0363996037392917
-0.0645596398510212,-0.0363506428540474
-0.0621425090495565,-0.0368850938761306
-0.0658904597698309,-0.0371139481848517
-0.0712497386151054,-0.0375650546487452
-0.0704439359386407,-0.0377383459186734
-0.0672561699469586,-0.0382727969407566
-0.0634028553819069,-0.0385294327688742
-0.0609506957081597,-0.04009180000863
-0.061125701455608,-0.0397650239294201
-0.0580780509530563,-0.039577155447193
-0.0528235814967003,-0.0399171358335004
-0.0480244873800183,-0.0394236706379112
-0.0422796137117058,-0.0403470629315461
-0.0340476901113281,-0.0402425390075087
-0.0249750735761678,-0.0402213596416609
-0.0160776014024205,-0.0407558106637442
-0.00784567780204274,-0.0405679421815171
0.000771563393443705,-0.0412690823199796
0.00546557089327803,-0.0417757518226662
0.010369751626808,-0.0417267909374219
0.0161496541674031,-0.0415667039745914
0.0218244700911505,-0.0428512560203814
0.0240664565312021,-0.0426633875381543
0.0293909837321233,-0.0423643929783409
0.0353460306341315,-0.0422320875349069
0.0417564528758136,-0.0424053788048349
0.0445939301446696,-0.0422175103226078
0.047571522902656,-0.0417240451270187
0.0515299240845554,-0.042064025513326
0.0542623147365636,-0.0425706950160127
0.0558387526032458,-0.0420772298204235
0.057765479192754,-0.0421393950127655
0.0552785678746534,-0.0416737113365728
0.0546481867875311,-0.0417914395677077
0.0535974592330176,-0.0421592014734116
0.0537026844638301,-0.0420268960299776
0.0566802772218167,-0.0419779351447333
0.0605335917868683,-0.0418178481819027
0.0617597409307243,-0.0423800807233824
0.060954215482189,-0.0419421785665863
0.0575915823570233,-0.0417820916037557
0.0595183089465314,-0.0412052818499769
0.0597286207941918,-0.0411841024841291
0.0569614784978303,-0.041301830715264
0.055175144625382,-0.041475121985192
0.0574171310654336,-0.041037219828396
0.0567867499783114,-0.0402659394388413
0.0547902428721674,-0.0398280372820452
0.0546852948692843,-0.0397790763968008
0.0552458954397707,-0.0401190567831081
0.0501318187004746,-0.03856989385045
0.0430210962410697,-0.0385764960039986
0.0386426258197083,-0.0394998882976336
0.0342641553983469,-0.0395064904511823
0.0303410603166594,-0.0397631262793
0.0294304482512763,-0.0401031066656074
0.0275390277619801,-0.0402208348967423
0.02760922412051,-0.0400607479339118
0.0252624282915399,-0.0399562240098743
0.0159799157506133,-0.0402684228767851
0.00319451598142576,-0.0402194619915406
-0.00468684166819644,-0.0408650390912101
-0.00787433043194907,-0.0410105488417416
-0.00976575092124524,-0.0409893694758938
-0.0152301163833675,-0.0410793161876322
-0.0188029227422289,-0.0410303553023878
-0.0224107579733728,-0.0409258313783504
-0.0280852966691907,-0.0407935259349163
-0.0308874678378347,-0.0406612204914824
-0.0316229355418048,-0.0410845454359794
-0.0299414110582748,-0.0407022063179764
-0.0275593091290928,-0.0411810943012665
-0.0240913121591499,-0.0413821670905911
-0.0195023912761634,-0.0412220801277605
-0.0159993654339378,-0.0418120941886368
-0.0122861663580166,-0.0427910495210649
-0.0050700800538345,-0.0428532147134068
0.00330195903567365,-0.0433043211773003
0.0111135361686601,-0.0436998646024008
0.0159126302853422,-0.0430397102904323
0.0191003962770244,-0.043046312443981
0.0200112855703369,-0.0425806287677884
0.0221832142658233,-0.0425872309213371
0.0259314422140272,-0.0425104885166962
0.0279982842926657,-0.0428226873836069
0.028208596140326,-0.0427737264983625
0.0327975170233124,-0.0427247656131181
0.0395932568601032,-0.0434536872709772
0.0460036791017854,-0.043210255749957
0.0494366471994457,-0.0430223872677299
0.0501373632590626,-0.0425289220721407
0.0465295280279187,-0.0421465829541376
0.0401193830141659,-0.0419587144719105
0.0312922458129132,-0.041854190547873
0.0230956283127476,-0.0414996329492666
0.0188572733805166,-0.0414784535834187
0.0220100104999161,-0.0412905851011916
0.0288758080812721,-0.0411582796577575
0.0321336318175194,-0.0407203775009614
0.0287009409477885,-0.0403102568635619
0.0221506804449053,-0.0396778840709899
0.0132534854990874,-0.0394344525499696
0.00855975522718248,-0.0388576427961907
0.0051270643574515,-0.0385586482363774
0.0045667410148945,-0.0383707797541502
0.00428664865059836,-0.0384329449464921
0.0028155746286935,-0.0375783199987477
0.00123941398994081,-0.0368903841673826
-0.00180795928468146,-0.0379249025386038
-0.00772770008647762,-0.0382093198861181
-0.0143830472062086,-0.0379936698844945
-0.0217389717715918,-0.0382780872320087
-0.0249264605353445,-0.0379513111527989
-0.0258721014730102,-0.037068904685658
-0.0260821360927412,-0.0367421286064481
-0.0252413045439939,-0.0368042937987899
-0.0237699532941597,-0.0356996351764766
-0.0217031112155211,-0.0358729264464047
-0.0225786944086217,-0.0362129068327121
-0.0293040992729178,-0.0357194416371228
-0.0369052259442792,-0.0358093883488613
-0.0412136386210754,-0.0355659568278411
-0.0412835577516758,-0.0356003405007864
-0.0356787995724937,-0.035301345940973
-0.0284977421405942,-0.0349467883423666
-0.0226477818554339,-0.0347589198601395
-0.0144158582550561,-0.034904429610671
-0.00415226006228705,-0.0347443426478403
0.00604128038591678,-0.0347509448013891
0.0176710045977075,-0.0345075132803688
0.0284250070024331,-0.0338751404877969
0.0384083742169414,-0.0335761459279837
0.0469205287955799,-0.0332771513681703
0.0546270193117185,-0.032978156808357
0.0637346647191616,-0.033095885039492
0.0727021946374741,-0.0334914284645924
0.0832109949362214,-0.0336647197345205
0.0912677741751861,-0.0331434730195347
0.0976431675445856,-0.0325111002269627
0.0995348652618112,-0.0324343578223218
0.0969778961991455,-0.0321909263013016
0.0953667066881102,-0.0321419654160572
0.0947012967287053,-0.0329820131515025
0.0928799339839744,-0.0329608337856546
0.0887116367963087,-0.0329674359392033
0.0862597543504907,-0.0330296011315452
0.0846135359671729,-0.0325083544165594
0.0864001470675506,-0.0322649228955392
0.0872760074885805,-0.0330494075921915
0.0865055109123278,-0.0328059760711712
0.0807609144719447,-0.0332293010156682
0.0692365541049311,-0.0332359031692169
0.0559607501237871,-0.0332980683615587
0.044751649607317,-0.034138116097004
0.0403731791859556,-0.0346170040802942
0.0394975959928551,-0.0342902280010843
0.0355745009111676,-0.0340190149606676
0.0292344136419801,-0.0343034323081818
0.0258717805168145,-0.0347545387720754
0.0237701867938226,-0.0345111072510552
0.0221589972827873,-0.0347121800403797
0.0184110465625128,-0.0351632865042733
0.016939972540608,-0.035169888657822
0.0194621899589205,-0.0350653647337845
0.022159551738646,-0.0348774962515574
0.0276241944286976,-0.0346618462499337
0.0365917243470101,-0.0345295408064998
0.04310723320554,-0.0346194875182381
0.0433525739254829,-0.0340704592838558
0.0345954944687954,-0.0337436832046459
0.0238417692919993,-0.0336391592806085
0.0142089680282467,-0.0330623495268296
0.00531177308242868,-0.0332078592773612
-0.00284981554545444,-0.0331311168727203
-0.00502146701301148,-0.0332488451038552
-0.0052665305050251,-0.0331721026992144
-0.00705286437747346,-0.0325119483872459
-0.0138132981140523,-0.032435205982605
-0.0235511859946528,-0.0324695896555503
-0.0297861866469925,-0.0320872505375473
-0.0319228092422669,-0.0318716005359237
-0.0370018571092806,-0.0319893287670587
-0.043166800017055,-0.031523645090866
-0.0473701260770034,-0.0315580287638113
-0.0480355360364083,-0.0313701602815842
-0.0469495023816828,-0.0317379221872881
-0.0469843926400007,-0.03180008737963
-0.0467040230477751,-0.031667781936196
-0.0496112808332669,-0.0326189557492275
-0.0556010793796283,-0.0325977763833797
-0.0586134237819679,-0.0325488154981353
-0.0574223035103946,-0.033055485000822
-0.0511870256301255,-0.0331732132319569
-0.0453020364726826,-0.0332075969049022
-0.039206874081544,-0.0336309218493992
-0.0339874334974706,-0.0341653728714824
-0.0257204810248102,-0.0344497902189967
-0.017173297573889,-0.0348453336440972
-0.00669952614742429,-0.035407566185577
0.00289852347197516,-0.0354697313779189
0.0108151872218095,-0.0352262998568987
0.0202030636075133,-0.0353718096074301
0.0294508245040866,-0.0355173193579617
0.0365267953191382,-0.0355239215115104
0.0416061204140812,-0.036836255076697
0.0452492617454372,-0.0379818995255044
0.0482618833757063,-0.0381829723148289
0.0516247937288015,-0.0380228853519983
0.0576849272476575,-0.0377794538309781
0.0659869085926005,-0.0375915853487509
0.0720820709837391,-0.0379871287738514
0.0791230129265081,-0.0380492939661932
0.0861639548692771,-0.0376669548481903
0.0942207341082418,-0.0380347167538942
0.10273288868688,-0.0381524449850291
0.108372675738345,-0.0384090808131468
0.110334431200136,-0.0389157503158334
0.112366244406492,-0.0386445372754166
0.114292970996,-0.0390400807005171
0.114047907503986,-0.0389911198152727
0.112997179949473,-0.0383587470227008
0.107707958848764,-0.0385042567732322
0.101507987068707,-0.0386497665237637
0.0981103250712584,-0.0385174610803297
0.0958335869868536,-0.0386907523502577
0.0938020510084271,-0.0388918251395823
0.0924010347310875,-0.0388428642543379
0.0908599029646174,-0.038516088175128
0.0898792331546691,-0.0388560685614354
0.087532437325699,-0.0392516119865358
0.0848003239016202,-0.039480466295257
0.0814376907764545,-0.0400704803561333
0.0698432726648757,-0.0396603597187337
0.0567776419174273,-0.0386390456546101
0.043256635830305,-0.0382567065366071
0.0297706586154654,-0.0380966195737765
0.0155841039549736,-0.0383810369212908
-0.000213778830518266,-0.0393322107343222
-0.0136997560453579,-0.0397833171982158
-0.0243133657330236,-0.0391231628862473
-0.0352072063989502,-0.0387963868070374
-0.0461010470648768,-0.0386918628829999
-0.0560140793068903,-0.0384762128813762
-0.0653666495923822,-0.0380938737633732
-0.0717417657338523,-0.0380171313587323
-0.0762953805166267,-0.0376625737601258
-0.0807439086825534,-0.0378636465494504
-0.0867337072289148,-0.0376202150284302
-0.0920229283296241,-0.0375712541431858
-0.0959460234113115,-0.0376334193355276
-0.0979775593897382,-0.0370010465429557
-0.101480308004034,-0.0368687410995217
-0.103932190449852,-0.03695868781126
-0.106068813045127,-0.0367708193290329
-0.109011099702901,-0.0363051356528403
-0.106138593561762,-0.0362561747675959
-0.0948941869450802,-0.0357904910914032
-0.0847006464968764,-0.0356859671673658
-0.0760483764291073,-0.0347479976614318
-0.0664152979374252,-0.0346712552567908
-0.0538397941740039,-0.0337332857508568
-0.0432959650029741,-0.0340732661371641
-0.0346086660629223,-0.0338298346161439
-0.0266920023130881,-0.0335586215757272
-0.019300771647493,-0.033065156380138
-0.0119095409818979,-0.0325161281457558
-0.0048335701668462,-0.0318281923143907
0.00357349779494458,-0.0308346597696636
0.0120506235013005,-0.0308968249620055
0.0200023161234174,-0.0308478640767611
0.0263777094928169,-0.0306044325557409
0.0296705621013468,-0.030777723825669
0.0305464225223767,-0.0308398890180108
0.0316324561771023,-0.0306242390163871
0.0367818390166104,-0.0301863368595911
0.0429820880245968,-0.0296650901446054
0.0499880010950832,-0.0297828183757403
0.0566085965704609,-0.0295393868547201
0.061582835048556,-0.0292126107755102
0.0577648265837164,-0.0291358683708693
0.0529309808226811,-0.0288646553304526
0.0472914709991458,-0.02839897165426
0.0419321921538713,-0.0283222292496191
0.0367830865422926,-0.028189923806185
0.0336306266508224,-0.028057618362751
0.0318793216506567,-0.028175346593886
0.0317743736477736,-0.0274040662043312
0.0332457248976078,-0.0279385172264144
0.0376595014191813,-0.0275006150696183
0.0449456454679286,-0.0273405281067877
0.0507605768808063,-0.0267081553142158
0.0548941224241189,-0.0265202868319887
0.0534931061467792,-0.0267491411407098
0.0502355596384613,-0.0270613400076206
0.0480288792986216,-0.0273457573551348
0.0447012750457385,-0.0271301073535112
0.0405329778580728,-0.0276367768561978
0.0348584391622549,-0.0275322529321603
0.0286584673821978,-0.0273721659693298
0.0211624273276843,-0.0272954235646889
0.0134912429117577,-0.0271075550824617
0.00785173308822241,-0.0268363420420449
0.00490944643044798,-0.0267040365986109
0.00340334353626053,-0.0263216974806079
0.00322833778881219,-0.0256615431686394
0.00424431369897253,-0.024751355182102
0.0051552029922851,-0.0247579573356507
0.00627626551929329,-0.0248201225279925
0.00788773225825797,-0.0249100692397309
0.00991954546461398,-0.0248611083544866
0.0120914741601004,-0.0248677105080353
0.015139124662652,-0.0254577245689117
0.0176263132086819,-0.0254365452030639
0.0200434440101466,-0.0253875843178195
0.0243521339148723,-0.0243384887342993
0.0341603567679674,-0.0247895951981928
0.0477867266998669,-0.024712852793552
0.0601870861018751,-0.0245805473501179
0.0746541489685572,-0.0245871495036667
0.0848126605444784,-0.0249826929287672
0.0896818124057257,-0.0260449928193848
0.0936051847153426,-0.025773779778968
0.0969680950684377,-0.0254747852191547
0.0981942442122938,-0.0248146309071863
0.0990000468887584,-0.0247656700219419
0.101767466413049,-0.0246611460979045
0.106601589402014,-0.024862218887229
0.11185605885837,-0.0248132580019846
0.1143432474044,-0.024903204713723
0.112556913531951,-0.0250764959836511
0.113187571847003,-0.0255276024475446
0.115849904754446,-0.0253952970041106
0.116130274346672,-0.0258464034680042
0.114939431303028,-0.0267697957616391
0.108879575012101,-0.0274153728613085
0.101348506085305,-0.0276720086894262
0.0926614843731825,-0.0279286445175439
0.0825733077697559,-0.0283797509814374
0.071889640337525,-0.0286919498483482
0.0625020411797506,-0.0287263335212935
0.0532195286388239,-0.0277328009765663
0.0452681132446365,-0.0280449998434772
0.0407495273341446,-0.0286072323849569
0.0410649257986528,-0.0300306920277298
0.0432018256218566,-0.0303151093752441
0.0452336388282126,-0.0307384343197411
0.0481061449693512,-0.0311895407836346
0.050698420132229,-0.031585084208735
0.0518895404038024,-0.0316194678816803
0.0521348811237454,-0.0307370614145394
0.0522751352268405,-0.0310214787620536
0.0540267174549357,-0.0316392743423265
0.0580201475091178,-0.0328127003105303
0.0589310368024304,-0.0334304958908031
0.0573899050359603,-0.0335760056413346
0.0566544373319902,-0.033665952353073
0.0555686809051941,-0.0339781512199838
0.0516806146957892,-0.0344014761644809
0.0419777556874713,-0.0347414565507882
0.0320997523177404,-0.0353314706116645
0.0225370087985529,-0.0356992325173684
0.0117832836217567,-0.0359558683454861
-0.000862000658300328,-0.0362958487317935
-0.00986428222096607,-0.0366080475987043
-0.0184462173162405,-0.0367257758298393
-0.0239105827783627,-0.036982411657957
-0.027938764476898,-0.0369890138115057
-0.0338935341509768,-0.0368844898874683
-0.0411794009717947,-0.0372800333125688
-0.0454527847763083,-0.0387312744747382
-0.0487803890291914,-0.0385156244731145
-0.0530888017059876,-0.038966730937008
-0.0585181382958272,-0.0389455515711602
-0.0634220418014278,-0.0387854646083296
-0.0641575095053979,-0.0386253776454991
-0.0612149456196941,-0.0385764167602547
-0.0566960824812729,-0.0386385819525965
-0.0528077390439386,-0.0386174025867488
-0.0489894533511695,-0.0388740384148665
-0.0460819183377484,-0.0394640524757429
-0.041668141816175,-0.039137276396533
-0.0313344858788408,-0.0382270884099956
-0.0208957433246587,-0.0376780601756133
-0.0109474049824331,-0.0378791329649379
-0.00176970183042501,-0.0378579535990901
0.00695262598190924,-0.037975681830225
0.0156749537942435,-0.0379267209449806
0.0236967041609256,-0.0379333230985294
0.0286359137667382,-0.0375232024611299
0.0308428713345072,-0.037752056769851
0.0356419654511893,-0.0375364067682273
0.0437688024347192,-0.0370151600532415
0.0491633873802057,-0.0368272915710144
0.0524912688610183,-0.036472733972408
0.0564496700429178,-0.0359792687768188
0.0618442549884042,-0.035708055736402
0.0674840420398689,-0.0359369100451232
0.0687802489282901,-0.0356934785241029
0.0663984242270374,-0.0343943492660138
0.0620900115502413,-0.0344842959777522
0.0564855305989886,-0.0349909654804388
0.0515465982211054,-0.034914223075798
0.0481839650959397,-0.0345874469965881
0.0483592480713175,-0.0343717969949645
0.0477638958564778,-0.0341839285127374
0.0466781394296816,-0.0329681438128378
0.0458726139811464,-0.0328358383694038
0.0468885898913067,-0.0329813481199353
0.0460130066982062,-0.0320711601333978
0.0404085257469535,-0.0318555101317741
0.0314062441842878,-0.0324177426732538
0.0234548287901003,-0.0322854372298198
0.0158186732464563,-0.0320697872281962
0.00541523679248628,-0.0319097002653656
-0.00635432568050551,-0.0317773948219317
-0.0130096728002365,-0.0313950557039287
-0.0173180854770327,-0.030623775314374
-0.0213112383032855,-0.0300469655605951
-0.0278614988061686,-0.0293312482098336
-0.0336060952465517,-0.0291989427663995
-0.0342014474613914,-0.0291499818811552
-0.0312238547034049,-0.028962113398928
-0.0266699626927011,-0.0289687155524767
-0.0232369945950407,-0.0289475361866289
-0.028245984717489,-0.0287318861850052
-0.0360923134948287,-0.0283773285863988
-0.0427826894868423,-0.0284394937787406
-0.043903474785921,-0.0285294404904789
-0.0400501602208694,-0.0283415720082518
-0.0352160372319047,-0.0269313166725764
-0.0327288486858747,-0.0265767590739699
-0.0288054763762579,-0.0267222688245014
-0.0225701984959889,-0.0270066861720156
-0.0122365425586546,-0.0267632546509953
-0.00239329083327693,-0.0273810502312682
0.00373690043014428,-0.0278877197339549
0.0125292859870437,-0.0273664730189691
0.0244042123048128,-0.0274008566919144
0.0310948655247558,-0.0274074588454631
0.0357188152800248,-0.0273307164408222
0.0404128227798591,-0.0271706294779916
0.0451068302796933,-0.0274828283449024
0.045387199871919,-0.0276283380954339
0.0439861835945793,-0.027857192404155
0.0402382328743049,-0.0278637945577037
0.0320766442464217,-0.0280093043082352
0.027452971719082,-0.028321503175146
0.035930097425438,-0.0287726096390395
0.0467191287024461,-0.0288347748313814
0.0482605376968456,-0.028785813946137
0.041219872982006,-0.0288201976190823
0.0339340061611881,-0.0288823628114241
0.0285046695713486,-0.0289723095231626
0.0265782202097698,-0.029062256234901
0.0265783588237345,-0.0290688583884497
0.0225151482529166,-0.0288809899062226
0.0153343680489465,-0.0288042475015817
0.00545636467921551,-0.0289219757327167
0.00184852944807156,-0.0287341072504896
0.00048254204301453,-0.0288796170010211
-0.00368575514465127,-0.0289140006739664
-0.0116021416665561,-0.0288372582693254
-0.0200789901449827,-0.0289272049810638
-0.0254732978625397,-0.0288782440958195
-0.0281003246697707,-0.0290793168851441
-0.0266990311645016,-0.0293915157520549
-0.0330391184336891,-0.0289536135952588
-0.0463849801593983,-0.0289046527100144
-0.0548618286378249,-0.0284389690338218
-0.0614821468852732,-0.0283066635903878
-0.0714302079995694,-0.0279243244723849
-0.0803274029453872,-0.0278198005483473
-0.0817284192227269,-0.0274930244691375
-0.0807825010571318,-0.0280274754912207
-0.086071722157841,-0.028617489552097
-0.0933926178509416,-0.028235150434094
-0.100293167076651,-0.0279361558742807
-0.105897648027903,-0.0280261025860191
-0.106142711519917,-0.0281160492977575
-0.105512053204865,-0.028511592722858
-0.101098276683292,-0.0284348503182171
-0.0987862324986751,-0.0283581079135761
-0.100012104414602,-0.0286147437416938
-0.104425603708246,-0.028593564375846
-0.103865003137759,-0.0285446034906016
-0.0998715730835772,-0.0285512056441503
-0.0987855394288517,-0.0286689338752852
-0.0981548811138,-0.0290922588197823
-0.0978745115215745,-0.0294600207254862
-0.0938460525951098,-0.029772219592397
-0.0871203705028843,-0.0294176619937906
-0.0809551503671805,-0.0293131380697531
-0.0756306231662592,-0.0295697738978708
-0.0706213558158815,-0.0288262750277127
-0.0659974060606125,-0.0282216837545374
-0.0611632830716478,-0.0286450086990343
-0.0560489291044222,-0.0287905184495658
-0.0529312208573054,-0.0291027173164767
-0.0505491189281233,-0.029748294416146
-0.0468709487244846,-0.0298938041666776
-0.0442436446893243,-0.0301504399947953
-0.0428773800563379,-0.0301292606289475
-0.0407054513608514,-0.0297469215109444
-0.0412307458311258,-0.029642397586907
-0.0422464445133569,-0.0298434703762316
-0.0438576340243921,-0.02993341708797
-0.0458891700028187,-0.0299122377221221
-0.0489715721497236,-0.0300855289920502
-0.0552416016743458,-0.029592063796461
-0.0645241142152724,-0.0296264474694063
-0.075067666158373,-0.0294385789871792
-0.0879231236721256,-0.0290840213885727
-0.102214764949465,-0.029118405061518
-0.110376353577348,-0.0293194778508426
-0.114229390914471,-0.0293260800043914
-0.119133294420071,-0.0289993039251816
-0.12603384364578,-0.0284502756907992
-0.13535138505899,-0.0277901213788307
-0.146735629936873,-0.0274633452996208
-0.159240798727799,-0.0278311072053247
-0.165370712763291,-0.0282544321498217
-0.172201204244435,-0.0280665636675946
-0.184356084312536,-0.0281842918987296
-0.196861253103462,-0.0284687092462438
-0.210172085956889,-0.0289753787489305
-0.224043380766837,-0.0290097624218757
-0.234797105943633,-0.0289885830560279
-0.244394878335103,-0.0284673363410422
-0.253502246514617,-0.0282794678588151
-0.257740601446848,-0.0281193808959845
-0.257530289599188,-0.0281537645689298
-0.252205762398266,-0.0278825515285131
-0.248492563322345,-0.0273613048135274
-0.247651731773598,-0.0275068145640589
-0.246845929097133,-0.0270966939266594
-0.24337793212719,-0.0268532624056392
-0.23847375139366,-0.0267487384816018
-0.239139161353065,-0.0266442145575643
-0.238368387548883,-0.0266785982305096
-0.237597613744701,-0.0269352340586273
-0.23630140685628,-0.0270251807703657
-0.23314866973688,-0.0277263209088282
-0.22488171726422,-0.0281218643339286
-0.216930024642103,-0.0279895588904946
-0.210344458039008,-0.0272460600203364
-0.202042476694065,-0.0278638556006093
-0.193215062264883,-0.0281482729481236
-0.181550309180809,-0.0284049087762413
-0.17181214407228,-0.0285782000461693
-0.163299989493641,-0.0282236424475629
-0.151249918814459,-0.0285914043532669
-0.135031412333646,-0.0284590989098328
-0.118287472768595,-0.0284657010633815
-0.10620237321713,-0.0280277989065855
-0.101088019249904,-0.0281455271377205
-0.0925408357989833,-0.0281521292912692
-0.0783540039105621,-0.0283532020805938
-0.0604190826879018,-0.0284987118311253
-0.0436401142505675,-0.0286720031010533
-0.0312747837208419,-0.0286508237352055
-0.0178235581503555,-0.028796333485737
-0.00566840085432555,-0.0291363138720443
0.00442005297703044,-0.0286984117152482
0.0144384490638212,-0.029066173620952
0.0249472493625684,-0.0292672464102766
0.0318130469439244,-0.0291349409668426
0.0363669389546282,-0.0294471398337534
0.0411310041990276,-0.0294259604679056
0.0476815419298401,-0.0291547474274888
0.0543721951497831,-0.0292446941392272
0.0596967223507043,-0.0286401028660518
0.0668777797826038,-0.0281188561510661
0.0747243857878728,-0.0280976767852183
0.0771415165893376,-0.0291877581952326
0.0735687102304762,-0.0290832342711951
0.0696456151487887,-0.0290064918665542
0.0668784728524274,-0.0285408081903615
0.067509131167479,-0.0281029060335655
0.0685251070776394,-0.0281095081871142
0.0677195816291041,-0.0276993875497146
0.063586313313721,-0.02773377122266
0.0591377851477945,-0.0274903397016398
0.0571412780416505,-0.0274135972969988
0.0549345977018108,-0.0272812918535648
0.0511165892369711,-0.0269545157743549
0.0499607750656098,-0.026822210330921
0.0500660002964223,-0.0267732494456766
0.047999435445713,-0.0265020364052597
0.0431305608123951,-0.0262586048842395
0.0392775234752729,-0.0255428875334779
0.0401183550240202,-0.0253828005706473
0.0403987246162458,-0.025333839685403
0.0391728527003192,-0.0252293157613655
0.0367559991267839,-0.0251803548761211
0.0330781061510746,-0.0253258646266526
0.0291550110693872,-0.0251379961444256
0.0291901785556345,-0.0245334048712501
0.0310468474005775,-0.0244566624666092
0.0298910332292161,-0.0244632646201579
0.0290154500361155,-0.024386522215517
0.0271240295468193,-0.0242542167720829
0.0216946929569797,-0.0240941298092523
0.0136381909459444,-0.0247119253895252
0.00743821916588739,-0.0244962753879015
0.000642756557025954,-0.0245028775414502
-0.00765894755998757,-0.0247317318501714
-0.0152600742313489,-0.0246549894455305
-0.0225459410521668,-0.0245782470408896
-0.0321086845713543,-0.0246959752720246
-0.0411459950063027,-0.0245636698285906
-0.0467855048298379,-0.0249036502148979
-0.0486068675745689,-0.0245490926162915
-0.0508836056589738,-0.0240556274207022
-0.0565931732270743,-0.0244511708458027
-0.064264357643001,-0.0245411175575411
-0.069833809721971,-0.0244088121141072
-0.0733715872085498,-0.0243598512288628
-0.0764890182277373,-0.0242275457854288
-0.0815330372224683,-0.0246786522493224
-0.0894143948720905,-0.0244352207283022
-0.0978562144782345,-0.0246640750370233
-0.1028301757284,-0.024615114151779
-0.105597318024762,-0.0246772793441208
-0.106788161068406,-0.0246005369394798
-0.105316809818571,-0.0246071390930286
-0.102479332549715,-0.0250860270763187
-0.0985909891123811,-0.0253982259432296
-0.0934416062728729,-0.0252659204997955
-0.0880820501996691,-0.0252447411339477
-0.0821970610422262,-0.0248901835353413
-0.0753662923331529,-0.0246745335337176
-0.0702519383659273,-0.0236810009889905
-0.067974923053593,-0.023826510739522
-0.0639814929994109,-0.0237219868154845
-0.0608988136245767,-0.0236730259302401
-0.0587619138013728,-0.0239296617583578
-0.0564498696167559,-0.0237973563149238
-0.0514055733940955,-0.0236372693520932
-0.0477974609350222,-0.0235327454280557
-0.0442243773482314,-0.0229837171936734
-0.0393552254869841,-0.023434823657567
-0.0337154384355194,-0.0238303670826674
-0.0286010844682939,-0.0235035910034576
-0.0188629193597639,-0.0230656888466615
-0.0103157359088427,-0.0228500388450378
-0.00159340809650844,-0.0227177334016037
0.00716394858810843,-0.0229465877103249
0.0160964496341383,-0.0228142822668909
0.0277261738459291,-0.0225986322652672
0.0397762445251112,-0.0224385453024366
0.0520014595657064,-0.0220006431456406
0.0631758084378233,-0.0218961192216031
0.0695512018072228,-0.0213470909872208
0.0749457867527092,-0.0210480964274075
0.0851042983286304,-0.0208880094645769
0.0970492823909647,-0.0208390485793325
0.104685715162538,-0.0211790289656399
0.108819260705851,-0.0208800344058265
0.108994543681228,-0.0210811071951512
0.107033065447367,-0.0211988354262861
0.101954017580353,-0.021010966944059
0.0970851429470355,-0.0210453506170042
0.0902896803381742,-0.0208852636541737
0.0838094775798563,-0.0203362354197914
0.0801666134764297,-0.019981677821185
0.0789407415605031,-0.0201827506105095
0.0750877042233808,-0.0204949494774203
0.0684673859759325,-0.0207238037861414
0.057293314331745,-0.0207581874590867
0.047240166600601,-0.0204869744186699
0.0391486357172831,-0.0206047026498048
0.0297260076872261,-0.020833556958526
0.0187971381490169,-0.0213957895000057
0.0070976334205902,-0.0214023916535544
-0.00512730439207553,-0.0212145231713273
-0.0146550190389804,-0.0210544362084967
-0.0247081667701244,-0.0209776938038559
-0.0349014299903988,-0.0214010187483529
-0.0439037115530645,-0.0215743100182809
-0.0509794051401868,-0.0218031643270021
-0.0547974136050265,-0.0215597328059818
-0.0565837474774749,-0.0218719316728926
-0.0551123962276407,-0.0216840631906655
-0.0492274070701977,-0.021829572941197
-0.0412056567035155,-0.0218917381335389
-0.0298561634699857,-0.0212871468603634
-0.0198377673831949,-0.0210437153393432
-0.0137776338643389,-0.0204113425467712
-0.0105198101280915,-0.0202790371033372
-0.00589586037282247,-0.0199522610241273
0.00237109209983789,-0.0197921740612968
0.00979735163771567,-0.0197154316566558
0.013230319735376,-0.0202221011593425
0.0150519597080363,-0.0205898630650464
0.0187651587839575,-0.0207075912961813
0.0209020586071613,-0.0205752858527473
0.0234943337700391,-0.0204429804093133
0.0276629081856343,-0.0208940868732069
0.0333727529816642,-0.0205950923133936
0.0406939259026941,-0.0203238792729769
0.043181114448724,-0.0203860444653187
0.0440219459974713,-0.0203093020606778
0.0449678641630664,-0.0208437530827611
0.046859561880292,-0.0211837334690684
0.0508529919344741,-0.0214403692971861
0.0519740544614823,-0.0216136605671141
0.050187720589034,-0.021675825759456
0.0468601163361508,-0.0220713691845564
0.044128002912072,-0.0224391310902603
0.0460897583738629,-0.0226402038795849
0.0496978708329363,-0.0220911756452026
0.0484719989170097,-0.0222366853957341
0.04223699826467,-0.0225488842626449
0.0357217666340695,-0.022472141858004
0.036002136226295,-0.0224231809727597
0.0411515190658032,-0.0227631613590671
0.0446195160357462,-0.022630855915633
0.0427631244187326,-0.0228597102243542
0.0435338982229147,-0.0235886318822133
0.0451103360895968,-0.0234563264387793
0.0471771781682353,-0.02376852530569
0.0484383561843739,-0.023386186187687
0.0484384947983386,-0.0231149731472702
0.0526771269584989,-0.0228715416262501
0.0595078956675724,-0.0228781437797989
0.061049304661972,-0.0230236535303304
0.0568459786020236,-0.0225579698541377
0.0519420750964231,-0.0229535132792382
0.0540089171750617,-0.0230990230297697
0.0595436176096785,-0.0222166165626287
0.0628364702182085,-0.0218898404834188
0.0626964933430427,-0.0215075013654158
0.0559710884787466,-0.0211807252862058
0.0475642977448852,-0.0208261676875994
0.0417146146876542,-0.0209994589575275
0.0397181075815102,-0.0204782122425418
0.0370910807742792,-0.0199291840081595
0.028929492146396,-0.0197690970453289
0.0157938036543825,-0.0196367916018949
0.00507510734986891,-0.0205324023761333
-0.00189549962040556,-0.0205112230102854
-0.00900622207981037,-0.0198510686983169
-0.0159768290500848,-0.0196354186966932
-0.0264503232486201,-0.0199753990830006
-0.0378345681265032,-0.0202320349111182
-0.046556618710908,-0.020794267452598
-0.0553136981675956,-0.020967558722526
-0.0648764416867831,-0.0207796902402989
-0.0706910958717314,-0.0208418554326408
-0.0713214769588536,-0.020570642392224
-0.0721620312796715,-0.0204938999875831
-0.0792377248667938,-0.020361594544149
-0.087924746578916,-0.0206182303722667
-0.0856827601388643,-0.0204581434094362
-0.0858927947585953,-0.0214648802612608
-0.0843163568919132,-0.0218604236863612
-0.0792370317969703,-0.0218948073593065
-0.0691836068378969,-0.0215958127994932
-0.0588499509005627,-0.021602414953042
-0.0508632294061632,-0.0214145464708149
-0.0459940775449159,-0.0212266779885877
-0.0369564898820382,-0.0213166247003262
-0.0252917367979648,-0.02168438660603
-0.012225828822587,-0.021857677875958
-0.00297806792601365,-0.0221143137040757
0.00175096844610321,-0.0221209158576245
0.00998289204648095,-0.0217663582590181
0.0175492670734891,-0.021884086490153
0.0250105554836495,-0.0218906886437018
0.0332775079563099,-0.0223140135881988
0.0415444604289701,-0.022792901571489
0.0460282946951088,-0.0229106298026239
0.0478849635400517,-0.0227505428397933
0.051493075999125,-0.0227571449933421
0.0570628053060245,-0.0232638144960288
0.0605658311482501,-0.0234926688047499
0.0526844734986279,-0.0237215231134711
0.0486913206723752,-0.0241170665385715
0.046449611460253,-0.0244570469248789
0.042841776229109,-0.0251304055439448
0.0382881614463346,-0.025609293527235
0.0318079586880167,-0.0256158956807836
0.026833997437851,-0.0259003130282979
0.0271143670300765,-0.0251290326387432
0.0258184373695848,-0.0256357021414298
0.0217552267987669,-0.0262534977217027
0.0165010345703402,-0.0271768900153376
0.0128581704669136,-0.028378097502938
0.00977576832000877,-0.0290236746026075
0.00679845278995172,-0.0298081592992597
0.00714888012674251,-0.030648207034705
0.00690381663472892,-0.031627162367133
0.00553782922967187,-0.0326894622577508
0.00221022497678873,-0.0335850730319892
0.00277082554727517,-0.0346473729226069
0.00721963094113118,-0.0356263282550349
0.0149611503295524,-0.0362719053547044
0.0241738823538432,-0.0367230118185979
0.0336318164841123,-0.0367296139721466
0.0443858188888377,-0.0372085019554367
0.0533533488071502,-0.038048549690882
0.0567162591602453,-0.0383051855189997
0.0592384765785578,-0.038589602866514
0.0574521427061095,-0.038762894136442
0.0552804912385524,-0.0391306560421459
0.0541947348117563,-0.0393872918702636
0.0539146424474601,-0.0397272722565709
0.0522333951918596,-0.0398172189683094
0.0507623211699547,-0.0399905102382374
0.0523737879089195,-0.040441616702131
0.0592395854902755,-0.040864941646628
0.0692579815770663,-0.041288266591125
0.0774548763051614,-0.0415171208998461
0.0801522380848869,-0.0414125969758087
0.0807128386553733,-0.041446980648754
0.0841107778807512,-0.0419258686320441
0.0896454783153681,-0.0420991599019722
0.092938330923898,-0.042411358768883
0.0959509525541669,-0.0421401457284662
0.0933589546192187,-0.0419244957268425
0.0883499644967703,-0.0420144424385809
0.085302591222148,-0.0415765402817848
0.0835863150942649,-0.0414720163577473
0.0793129312897514,-0.041423055472503
0.0806441670504552,-0.041596346742431
0.0829562112350721,-0.041769638012359
0.0842874469957759,-0.0417762401659077
0.0865294334358277,-0.042866321575922
0.0885612466421837,-0.0430951758846432
0.0909783774436484,-0.0429350889218127
0.092589844182613,-0.0436362290602752
0.0934657046036429,-0.0438650833689963
0.0872657328235859,-0.0443439713522865
0.0766521231359201,-0.0443783550252318
0.0683153901466239,-0.0445516462951599
0.0616950718991756,-0.0447249375650879
0.0557403022250968,-0.0450926994707919
0.0475787135972137,-0.0457104950510647
0.0333921589367218,-0.0461060384761652
0.0168586698332952,-0.0461959851879036
0.00200656659943387,-0.0466193101324006
-0.0101132845963839,-0.0470148535575011
-0.020516721050354,-0.0476326491377739
-0.0301144934418241,-0.0477503773689089
-0.0402026700452507,-0.0472013491345266
-0.0506411353715034,-0.0471523882492822
-0.0596434169341692,-0.0472423349610206
-0.0692762181979219,-0.0476656599055176
-0.0761417385513485,-0.0478945142142388
-0.0764568597879273,-0.0471787968634772
-0.0769821542582018,-0.0467408947066811
-0.0783131127909762,-0.0465252447050574
-0.0816056881715768,-0.0458650903930889
-0.0859491297206556,-0.0452604991199135
-0.0897321093132126,-0.0445725632885485
-0.0884008735525088,-0.0445791654420973
-0.0856684829005006,-0.0435856328973702
-0.0850728534577315,-0.0428976970660051
-0.0873846204144189,-0.0427098285837779
-0.0876647127787151,-0.0420496742718094
-0.0803785687299678,-0.0412506123628581
-0.0673476896268727,-0.0410905254000275
-0.0523201648036689,-0.0406804047626279
-0.0368022357685086,-0.0402980656446249
-0.0248572517061743,-0.039915726526622
-0.015154115469927,-0.0397278580443948
-0.00905895307878829,-0.0389287961354436
-0.000827029478410563,-0.0384353309398544
0.00915633773609764,-0.0384141515740066
0.0177385500593015,-0.0380318124560036
0.0223975286868531,-0.0374272211828281
0.0219422919611439,-0.03748938637517
0.0205763045560869,-0.0376348961257015
0.0215922804662473,-0.0377526243568364
0.026426403455212,-0.036842436370299
0.0332571721642854,-0.0369323830820374
0.0433105971233588,-0.0369112037161895
0.049791077109606,-0.0368900243503417
0.0478646277480273,-0.0370910971396663
0.0448873122179702,-0.0374032960065771
0.0442919600031305,-0.0378544024704706
0.0503170646497038,-0.0382777274149676
0.0587591614837773,-0.0387010523594646
0.0598802240107855,-0.0393188479397375
0.0572531972035545,-0.0394087946514759
0.0566228161164323,-0.0396098674408004
0.0570433011977883,-0.0405888227732285
0.0576389306405574,-0.041039929237122
0.0586549065507177,-0.0419077584919639
0.0552222156809867,-0.0420532682424954
0.046044789756908,-0.0420320888766476
0.0364119884931552,-0.0427054474957136
0.0353262320663591,-0.0424897974940899
0.0409660191178238,-0.0428575593997937
0.0504589821203755,-0.0424474387623942
0.0588660500821662,-0.0426485115517188
0.0581656112504788,-0.0424606430694917
0.0495836761552043,-0.0422727745872646
0.0386898354892777,-0.041862653949865
0.0284615433967207,-0.0418692561034138
0.022681918084055,-0.0408757235586866
0.0229973165485632,-0.0405211659600801
0.0235929459913322,-0.0404999865942323
0.0208258036949708,-0.0412844712908845
0.0110178580698051,-0.0415688886383987
-0.000961877636882372,-0.0415199277531544
-0.00712682054465684,-0.0411375886351515
-0.0113301466046052,-0.0411719723080967
-0.0181956669580318,-0.0409841038258695
-0.0260069668630888,-0.0396849745677803
-0.0361652012110806,-0.0392470724109843
-0.0446420496895072,-0.039003640889964
-0.0456927772440208,-0.0382323605004094
-0.0406134521490779,-0.0375166431496478
-0.039282216388374,-0.0376621529001793
-0.0428550227472355,-0.0370297801076074
-0.0515770733316403,-0.0363418442762424
-0.062190683019306,-0.035737253003067
-0.071263022326537,-0.0364939561803227
-0.0717532879245289,-0.0357782388295611
-0.0686706085496946,-0.0348680508430236
-0.0634511679656212,-0.0351524681905379
-0.057145832340787,-0.0349923812277073
-0.0506653523545397,-0.035249017055825
-0.0432390928166619,-0.0349778040154083
-0.0373891325315015,-0.0347621540137846
-0.0365483009827542,-0.033740839949661
-0.0314339470155287,-0.0333307193122614
-0.0234822543934118,-0.0331150693106377
-0.0177023518528167,-0.0330661084253934
-0.0131484598421129,-0.032711550826787
-0.00957537625532212,-0.0319124889178357
-0.0090498045571183,-0.0320857801877637
-0.00670273150021886,-0.0315367519533814
-0.00365508099766723,-0.0304320933310681
0.00272031237173225,-0.0299664096548754
0.00755443536069689,-0.0296396335756655
0.0093760753333572,-0.0291739498994729
0.012143494857648,-0.0294305857275906
0.0184838593547649,-0.0294927509199324
0.0292028328872078,-0.0298605128256363
0.0379251606995421,-0.0298671149791851
0.0453514202374199,-0.0295403388999751
0.0474182623160585,-0.0291302182625756
0.0463325058892623,-0.0282755933148312
0.0460524135249661,-0.0278932541968282
0.0459124366498004,-0.0269830662102908
0.0446865647338738,-0.026711853169874
0.0430053174782732,-0.0274129933083365
0.0457377081302814,-0.0275307215394715
0.0445468650866374,-0.0265371889947443
0.0406587988772325,-0.026238194434931
0.0377515410917407,-0.0271060236897728
0.0394330655752706,-0.0265847769747871
0.0432513512680397,-0.0261190932985944
0.0493114847868957,-0.0266257628012811
0.052113933183469,-0.0262712052026746
0.0544610062403685,-0.0263333703950165
0.053410278685855,-0.0267011323007204
0.0478057977346023,-0.0267077344542691
0.0480161095822627,-0.0266587735690247
0.0480863059407926,-0.0262764344510217
0.0462299143237791,-0.0260885659687946
0.0386638165247003,-0.0268174876266537
0.0326389891060563,-0.0271574680129611
0.031202943956434,-0.0259972463518546
0.0364574134127901,-0.0256704702726448
0.0431130377604505,-0.0259271061007625
0.0467211502195239,-0.0258781452155181
0.0454602494313147,-0.0252735539423427
0.0421676740507142,-0.0255579712898569
0.0409418021347876,-0.0257034810403885
0.0447600878275567,-0.0249877636896268
0.0515207987920649,-0.0255777777505031
0.0573707590772252,-0.0259455396562071
0.0584918216042334,-0.0265633352364799
0.0536579758431982,-0.0264032482736493
0.0466873688729238,-0.0254930602871118
0.040102079497758,-0.0255274439600571
0.037124763967701,-0.0256173906717956
0.0303993591034049,-0.0257351189029305
0.0246547626630218,-0.025324998265531
0.0239192949590516,-0.0255260710548556
0.0223431343202989,-0.0260327405575423
0.0199963384913288,-0.025789309036522
0.0157579835590978,-0.0260181633452432
0.0131659856241495,-0.0256080427078436
0.0119050848359403,-0.0248089807988924
0.0066508926075137,-0.0239543558511481
0.000766180678000104,-0.023516453694352
-0.00438292493357876,-0.0234119297703146
-0.00823596227070099,-0.0229462460941219
-0.00830588140130155,-0.0227305960924983
-0.00574863511070649,-0.0227927612848401
-0.0042422549885897,-0.0238550611754578
-0.00830546555940762,-0.0241950415617652
-0.0155913323802256,-0.0235904502885897
-0.0193392831005,-0.0229025144572247
-0.0204950972718614,-0.0217700743155148
-0.0186033995546358,-0.0204153820186325
-0.0160111243917581,-0.0204775472109743
-0.0130335316337716,-0.0203730232869368
-0.0104762853431765,-0.0194906168197959
-0.00336528565584224,-0.0192471852987757
0.00472652245540505,-0.0185314679480141
0.0104713961237176,-0.0179824397136318
0.0122930360963779,-0.0180446049059736
0.0101213846288209,-0.0181623331371085
0.00966614790311174,-0.0181133722518641
0.0149556462317504,-0.0169809321101542
0.0192993650087586,-0.0165708114727547
0.0233978816797885,-0.0171052624948379
0.027181138500275,-0.015722788678559
0.0291078650897832,-0.0150626343665906
0.029633436787987,-0.0152359256365187
0.0275318430649952,-0.015325872348257
0.021436957901786,-0.0157214157733574
0.0158324769505334,-0.0155335472911303
0.0115240642737372,-0.0154290233670928
0.0104032789746585,-0.0149633396909001
0.00763613667829708,-0.0142754038595351
0.00493905212650084,-0.0133929973923942
-0.000700457697034469,-0.0124550278864601
-0.00570944781948282,-0.0115726214193192
-0.00991277387943116,-0.0108846855879542
-0.0126799161757925,-0.0110301953384857
-0.0170934154694365,-0.0103978225459137
-0.0221374344641675,-0.010682239893428
-0.0281622618828114,-0.0111333463573215
-0.028582469736238,-0.0113899821854392
-0.0222771341114038,-0.0113410213001949
-0.0170226646550478,-0.0105697409106402
-0.0193344316117353,-0.00993736811806827
-0.0256745188809228,-0.00980506267463423
-0.0339762229979363,-0.00997835394456235
-0.0401761947779934,-0.00956823330716287
-0.0422427596287026,-0.00868582684002196
-0.0428731407158248,-0.00874799203236381
-0.0444843302268602,-0.00875459418591258
-0.0439237296563737,-0.00867785178127166
-0.0433631290858873,-0.00887892457059629
-0.0401753630942052,-0.00849658545259326
-0.0336598542356753,-0.00836428000915923
-0.0267940566543194,-0.00767634417779412
-0.0230458287061155,-0.00712731594341184
-0.0220999105405204,-0.00616156491808127
-0.0213991944809035,-0.0053347214897335
-0.0211538537609606,-0.00589695403121327
-0.0216441193589524,-0.00670922024726199
-0.0208383166824878,-0.00646578872624172
-0.0222043040875448,-0.00619457568582494
-0.0233951471311888,-0.00636786695575295
-0.0254266831096154,-0.00673562886145682
-0.0294898936804333,-0.00646441582104004
-0.0313462852974468,-0.00655436253277848
-0.0314512333003299,-0.00725550267124098
-0.0315211524309304,-0.00731766786358282
-0.0311707250941397,-0.00660195051282125
-0.0318361350535445,-0.00516391365774931
-0.0346383062221885,-0.00542054948586696
-0.0379659104750717,-0.00673288305105361
-0.0363194148638243,-0.00676726672399888
-0.0366695649726857,-0.00691277647453042
-0.0321507018342644,-0.00591924392980325
-0.0242690669567128,-0.00562024936998989
-0.0193999150954655,-0.00618248191146964
-0.015791802636392,-0.00635577318139766
-0.0129893542398186,-0.00577896342761877
-0.00692922072096255,-0.00500768303806409
0.00242362679245867,-0.00401415049333698
0.0113911567107712,-0.00624327419860986
0.0194129070774532,-0.00694441433707236
0.0256832138300049,-0.00706214256820733
0.0330043867510348,-0.00712430776054915
0.0424623208813038,-0.0073253805498738
0.0501688113974424,-0.00847102499868119
0.0499938056499941,-0.00803312284188513
0.0483125583943936,-0.00545604369155458
0.0527963926605321,-0.0056015534420861
0.0605379120489533,-0.00596931534779004
0.0695754997118311,-0.00564253926858015
0.0779125099290567,-0.00526020015057718
0.0799793520076952,-0.00598912180843632
0.0839377531895947,-0.00571790876801952
0.0866000860970377,-0.00558560332458553
0.0915392957028503,-0.00603670978847909
0.0889823266401845,-0.00684897600452781
0.0853744914090405,-0.0078557128563524
0.0785790288001791,-0.00791787804869427
0.0706276134059916,-0.0070910346203465
0.0712933005933259,-0.00662535094415383
0.0720640743975079,-0.00640970094253013
0.0655138138946247,-0.00663855525125132
0.060364708283046,-0.00739525842850694
0.0597343271959238,-0.00715182690748673
0.0597344658098885,-0.00743624425500101
0.0549356489211358,-0.00813738439346359
0.043166086448144,-0.00819954958580543
0.0308010331463478,-0.00790055502599209
0.0269479958092255,-0.0065458627291098
0.0256520661487337,-0.00627464968869302
0.018261112711068,-0.00650350399741417
0.0101695818277501,-0.00648232463156633
0.00232325305041037,-0.00693343109545984
-0.0047524405367119,-0.00738453755935341
-0.00685403425970371,-0.00719666907712625
-0.0116178222761738,-0.00825896896774397
-0.0223365185806874,-0.00857116783465473
-0.0296924431460705,-0.00955012316708276
-0.0330901051435189,-0.0102790448249418
-0.0384844128610759,-0.0108968404052147
-0.0419521326030894,-0.0101533415350566
-0.0449995058777117,-0.0100488176110191
-0.0533362388670079,-0.0111111175016368
-0.0595712395193475,-0.0107009968642372
-0.0603067072233176,-0.010763162056579
-0.0625133875631573,-0.0101307892640071
-0.0685382149818013,-0.00999848382057311
-0.0743528691667496,-0.0107551869978288
-0.0771550403353936,-0.011039604345343
-0.0727062349415376,-0.011157332576478
-0.0640889937460512,-0.0114695314433887
-0.0522140674282822,-0.0114483520775409
-0.0407594875779045,-0.0111493575177276
-0.0302156584068745,-0.0109337075161039
-0.0215283594668229,-0.0107736205532733
-0.0127359739099234,-0.0109469118232014
-0.00481931016008911,-0.0113980182870949
0.00348267118485381,-0.0113490574018505
0.0115744792961011,-0.0111611889196234
0.0256912534399571,-0.0112789171507583
0.0369706889289218,-0.0113410823431002
0.0453777568907126,-0.0113199029772524
0.0506672552193512,-0.0113265051308012
0.0582686591186419,-0.0113608888037465
0.0650643989554327,-0.0117286507094504
0.0700386374335279,-0.0126242614836888
0.0708794689822752,-0.0122697038850824
0.0725960223380877,-0.0119429278058726
0.0765193946477046,-0.0114772441296799
0.0808981422969954,-0.0119839136323666
0.0862226694979166,-0.012379457057467
0.0933686980575335,-0.0125527483273951
0.0970118393888895,-0.0126982580779266
0.0898310591849195,-0.0132049275806133
0.0760648509918189,-0.0138782861996793
0.0625788737769793,-0.0141904850665901
0.0516850331110527,-0.0135581122740181
0.0429629825266478,-0.0140370002573082
0.0309832468199604,-0.014599232798788
0.0187933378795772,-0.0144113643165609
0.00895036338212889,-0.0140012436791613
0.000578601520550169,-0.0141467534296928
-0.00831859342526779,-0.0144867338160002
-0.0168304707759771,-0.0148267142023075
-0.0241863953413602,-0.014972223952839
-0.0330485614148955,-0.015145515222767
-0.0421209007221264,-0.0153743695314882
-0.0470948619722921,-0.0155754423208128
-0.0493015423121318,-0.015304229280396
-0.0481104220405584,-0.0153941759921344
-0.0496515538070285,-0.0152063075099073
-0.0562718720544768,-0.0145739347173353
-0.0634176233861643,-0.0150806042200219
-0.0691271909542648,-0.0156983998002947
-0.0738209212261697,-0.0148437748525504
-0.0733654072725311,-0.014239183579375
-0.064187704120523,-0.014162441174734
-0.0524879221641671,-0.0144468585222483
-0.0454119513491154,-0.0143701161176074
-0.0428547050585203,-0.0136543987668457
-0.041558498170099,-0.0127442107803082
-0.0340621808876561,-0.0130564096472191
-0.0232381207383653,-0.0122573477382678
-0.0128344070564658,-0.0120139162172476
-0.00302618420337064,-0.0119927368513998
0.00205314089157228,-0.0122771541989141
0.00131767318760217,-0.0118114705227214
0.00149295616297996,-0.0113735683659252
0.00534627072803157,-0.0116857672328361
0.00853403671971367,-0.0115812433087987
0.0107760231597654,-0.0113378117877785
0.011406681474817,-0.0111221617861548
0.0102858961757382,-0.010850948745738
0.00920013974894202,-0.00980185316221777
0.0136139162705154,-0.00986401835455959
0.0178525484306758,-0.0103429063378497
0.0201645926152927,-0.0104050715301916
0.0215658861205617,-0.01049501824193
0.0197445233758308,-0.00991820848815111
0.0178531028865346,-0.010285970393855
0.0116881599787602,-0.0102370095086107
0.00885095993783357,-0.00982688887121116
0.0106375710382114,-0.00975014646657028
0.0139654525190239,-0.0100345638140846
0.0142808509835321,-0.00984669533185742
0.0114086220703228,-0.010297801795751
0.00608437209733096,-0.0101932778717135
-0.00333825593272607,-0.00964424963733116
-0.00565002288941348,-0.00937303659691441
0.0010406303305295,-0.00851841164917003
0.00983301588742898,-0.00791382037599463
0.0179598528709589,-0.0078370779713537
0.023564611050141,-0.00770477252791969
0.0233195475581274,-0.00746134100689946
0.0254914762536138,-0.0067734051755344
0.0323222449626872,-0.00680778884847975
0.0404841108184998,-0.00667548340504579
0.044022165533008,-0.00637648884523242
0.0445127083589291,-0.0064942170763673
0.0440224427609373,-0.00655638226870912
0.0468248911575106,-0.0061462616313096
0.0519392451247362,-0.00631955290123764
0.0578592631544618,-0.00713181911728641
0.0648651762249482,-0.00661057240230069
0.0693490104910868,-0.00603376264852187
0.0684383984257037,-0.00540138985594993
0.0658113716184727,-0.00490792466036074
0.0636747490231983,-0.00558128327942672
0.0625539637241195,-0.00514338112263064
0.0615732939141711,-0.00523332783436903
0.0639553958433531,-0.00437870288662464
0.0673883639410134,-0.00377411161344925
0.0688947440631303,-0.00366958768941172
0.063255234239595,-0.00403734959511563
0.0498042858970379,-0.00376613655469888
0.0360030488316548,-0.0033837974366959
0.0280166045651847,-0.00319592895446877
0.0256698087362147,-0.00428601036448297
0.0246190811817011,-0.0048204613865662
0.0236033824994702,-0.00524378633106323
0.0216769331378914,-0.00505591784883607
0.0181391556513127,-0.00464579721143649
0.0139008007190817,-0.00459683632619215
0.00640476066456817,-0.005464665581034
-0.00109127938994539,-0.00527679709880683
-0.00550477868358938,-0.00503336557778657
-0.00830694985223339,-0.00548447204168015
-0.00904241755620349,-0.00610226762195306
-0.00736089307267359,-0.00621999585308802
-0.00869185160544803,-0.00617103496784367
-0.0120895136028964,-0.00628876319897862
-0.0178691389155621,-0.00612867623614806
-0.0268013627336627,-0.00560742952116232
-0.034402489405024,-0.00558625015531448
-0.0434047709676897,-0.00631517181317354
-0.0520567638075293,-0.00618286636973948
-0.0554193969326951,-0.00580052725173651
-0.053212439364926,-0.00636275979321625
-0.0532473296232439,-0.00642492498555809
-0.0533873064984096,-0.00732053575979651
-0.0575556036860753,-0.00721601183575903
-0.0648414705068932,-0.00638916840741124
-0.0723375105614068,-0.00550676194027031
-0.0796233773822248,-0.00534667497743974
-0.0821102887003253,-0.00543662168917815
-0.0811643705347301,-0.00572103903669249
-0.0785720953718524,-0.006116582461793
-0.0784668701410399,-0.00662325196447968
-0.0824950518395752,-0.00618534980768357
-0.0854373384973496,-0.00580301068968053
-0.0917774257665371,-0.00592073892081549
-0.0971016757395289,-0.00564952588039871
-0.0966111329136076,-0.00496159004903365
-0.0913566634572516,-0.00494041068318583
-0.082564277900352,-0.00469697916216563
-0.070233976242909,-0.00364788357864536
-0.0592698006044879,-0.0025710064757286
-0.0562571789742188,-0.00163303696979456
-0.0528592397488411,-0.00125069785179154
-0.0469041928468329,-0.000590543539823019
-0.0383219805236291,0.000402989004904111
-0.0265171119504253,0.000396386851355388
-0.0146772145049389,0.000389784697806664
-0.00570968458662645,0.0012721911649476
0.00290755660885997,0.00118224445320917
0.0122253752499986,0.00128676837724666
0.0209827319346156,0.00222473788318065
0.0288643668121672,0.00330161498609745
0.0367109728174363,0.00415623993384181
0.0428061352085749,0.00470526816822407
0.0445226885643874,0.00522651488320983
0.0468697616212868,0.00494209753569554
0.050582960697208,0.00468546170757781
0.055662285792151,0.00540117905833944
0.0580093588490505,0.00545013994358384
0.0575190932510587,0.0068326137598627
0.0507586595144798,0.00757611263002089
0.0475011130061619,0.00812514086440321
0.046030038984257,0.00797963111387165
0.0449092536851783,0.00827862567368492
0.0497083478018605,0.00841093111711892
0.0513898722853904,0.00795982465322536
0.0460305934401159,0.00770318882510765
0.0424577870812545,0.00705761172543825
0.0432285608854366,0.00696766501369983
0.0435789882222274,0.00676659222437525
0.0414073367546704,0.00584319993074029
0.0396910606267872,0.00555878258322602
0.0367137450967302,0.00502433156114282
0.0367138837106948,0.00421206534509408
0.0337365681806379,0.00376095888120049
0.0236834204494939,0.00294869266515171
0.00953189466128465,0.00194195581332707
0.00116013279970588,0.00151863086883008
-0.00668619597763375,0.00076192769157446
-0.016003737390843,-0.000217027640853566
-0.0227641711274218,-0.00141823512845406
-0.0257414866574788,-0.00300838388760625
-0.0278781092527533,-0.00476522176313773
-0.0314509156116147,-0.00666096723565199
-0.0412588612367804,-0.00800108232023515
-0.0507515470114027,-0.00856331486171492
-0.0589481645115684,-0.00968117779112573
-0.0667944932889081,-0.0109101667981227
-0.0730294939412477,-0.0123614079602922
-0.0764972136832613,-0.013979338238841
-0.0860949860747313,-0.0160417728277346
-0.0974091732080492,-0.0170485096795591
-0.108162898384845,-0.0180274650119872
-0.109353741428489,-0.0192286724995876
-0.111735566129742,-0.020429879987188
-0.115763747828277,-0.023270197119185
-0.120212275994204,-0.0239991187770442
-0.12196358099437,-0.0238668133336101
-0.121262864934753,-0.024734642588452
-0.112225277271875,-0.0260469761536386
-0.10402838254378,-0.0279149401067564
-0.0995095194053587,-0.0288105508809948
-0.0962516956691114,-0.0294561279806642
-0.0928887853160163,-0.0302683941967129
-0.0916626361721603,-0.0312473495291409
-0.0905065447728695,-0.0321151787839828
-0.08251982327847,-0.0332886047521867
-0.0715206187677661,-0.0342397785652182
-0.0611519339581493,-0.03510760782006
-0.0540759631430977,-0.0358365294779191
-0.0461242705209808,-0.0358986946702609
-0.03852286662169,-0.0361553304983786
-0.0286445860240296,-0.0367731260786515
-0.0170849195568041,-0.0367797282322003
-0.0120055944618611,-0.0371752716573007
-0.00563020109246165,-0.0377097226793839
-0.00275769495132311,-0.0377996693911223
-9.53620438801263e-05,-0.0376673639476882
0.00200650890704115,-0.0380629073727887
0.00480895730361457,-0.0374860976190099
0.00929279156975319,-0.0384094899126448
0.0145122321538265,-0.0392495376480901
0.0147225440014869,-0.0392283582822423
0.0142673072757776,-0.0388460191642393
0.0158437451424597,-0.0362133769751157
0.0177704717319679,-0.0363033236868541
0.0182610145578892,-0.0369766823059201
0.0200826545305495,-0.0370110659788654
0.0227449874379925,-0.0364898192638796
0.0185416613780441,-0.0356907573549283
0.0129371804267914,-0.0350861660817529
0.00803327692119089,-0.0352872388710775
0.00572150996450342,-0.0352382779858332
0.00172835713825072,-0.0342725269605026
-0.000688496435284569,-0.0336123726485341
-0.00653817949251549,-0.0334522856857035
-0.0115121407426813,-0.0328476944125281
-0.0103210204711079,-0.0316596912320251
-0.00870955373214315,-0.0311940075558325
-0.00688791375948278,-0.0312283912287777
-0.00541656250964857,-0.0308182705913781
-0.00902439774079267,-0.0302414608375993
-0.0144887632029149,-0.0308870379372687
-0.0190423779856894,-0.0309769846490072
-0.0207236252412898,-0.0319837215008317
-0.020828573244173,-0.0311013150336909
-0.017535720635643,-0.0305800683187052
-0.0165197447254827,-0.0300866031231159
-0.0136122097120615,-0.030815524780975
-0.00863797123396634,-0.0313777573224548
-0.00573043622054509,-0.0310787627626414
-0.00695630813647175,-0.0302519193342936
-0.00618553433228968,-0.0316753789770665
-0.00653568444115106,-0.0329043679840635
-0.00891750914240371,-0.0328554070988191
-0.0155728562621346,-0.0338621439506437
-0.0184100563030613,-0.0338687461041924
-0.0178844846048574,-0.033764222180155
-0.0128752172544797,-0.0337708243337037
-0.00839138298834108,-0.034610872069149
-0.00572905008089815,-0.0343396590287322
-0.00734023959193342,-0.0341795720659017
-0.0132950092660122,-0.0341306111806573
-0.0225424929346561,-0.0345539361251543
-0.0236632782337349,-0.0343382861235307
-0.0213862629214007,-0.0342337621994933
-0.0229273946878708,-0.0350182468961454
-0.0289171932342322,-0.0354415718406424
-0.0367635220115718,-0.0352259218390188
-0.0474471894438027,-0.0351213979149813
-0.0595670406396206,-0.0349057479133577
-0.0713366031126124,-0.0338288708104409
-0.0830711367133217,-0.0326408676299379
-0.0900767725558787,-0.0314806459688314
-0.0937546655315879,-0.0321817861072939
-0.0961715191051232,-0.0336052457500668
-0.100129643059093,-0.0332506881514604
-0.105664066265781,-0.0322571556067333
-0.105628898779533,-0.0309858078680406
-0.107555348141112,-0.0306312502694342
-0.113264915709213,-0.0318324577570347
-0.120760955763726,-0.0299776981110145
-0.128537226796501,-0.0291508546826666
-0.137294306253188,-0.0286573894870774
-0.142023065397376,-0.0278583275781262
-0.14174269580515,-0.0276704590958991
-0.136137937625968,-0.0278715318852237
-0.133510633590808,-0.0278225709999793
-0.131829109107278,-0.0270235090910281
-0.126539610778639,-0.0274190525161285
-0.119428611091305,-0.0277868144218324
-0.112142467042558,-0.0276545089783984
-0.105802102545441,-0.0276888926513436
-0.0939271762276717,-0.0274732426497199
-0.080861268252294,-0.0273687187256824
-0.0682157067443075,-0.0270975056852656
-0.0593182345705602,-0.0276597382267454
-0.0548344003044216,-0.0279441555742596
-0.051331374462196,-0.0282285729217739
-0.0456565585384487,-0.027901796842564
-0.038405443361984,-0.0279639620349058
-0.031714790142041,-0.0289429173673339
-0.0274761579818807,-0.0287550488851068
-0.0234126701831334,-0.0281504576119314
-0.0208203950202556,-0.0266568577180663
-0.0192789860258561,-0.0260800479642874
-0.0150753827379784,-0.0264755913893878
-0.00954068230336146,-0.0264821935429366
-0.00519696352635325,-0.026322106580106
-0.00137867783358421,-0.0259675489814996
0.00429613809016306,-0.0265853445617724
0.00762401957097559,-0.0268975434286833
0.00755410044037505,-0.027154179256801
0.0114074150054267,-0.027577504201298
0.018693559054174,-0.0276118878742433
0.0291673304806387,-0.0271184226786541
0.0303234218799294,-0.0268194281188407
0.0249291141623724,-0.027103845466355
0.0178534205752501,-0.0267215063483521
0.0130195748142148,-0.0263391672303491
0.0108829522189403,-0.0266235845778634
0.00843106977312242,-0.0266857497702052
0.00636450492241314,-0.0267201334431505
0.00506857526192131,-0.0265044834415268
0.00349241462316859,-0.0267055562308514
0.00177613849528555,-0.026350998632245
-0.001691581246728,-0.0263576007857938
0.00258207978571495,-0.026086387745377
0.00927273300565788,-0.0264263681316843
0.0136865095272312,-0.0270163821925607
0.0138968213748915,-0.0268562952297301
0.0106743037388562,-0.0276129984069857
0.00405398549140783,-0.0280085418320862
-0.000429571546801331,-0.0279595809468418
-0.00288145399261923,-0.0275216787900458
-0.00256605552811104,-0.0278616591763531
-0.00463262037882022,-0.0288128329893846
-0.00988681260724683,-0.0291805948950886
-0.0223569525258908,-0.029020507932258
-0.0274009715206218,-0.0290271100858067
-0.0272256885452441,-0.0290337122393554
-0.0246334133823663,-0.0292903480674732
-0.0242479571732929,-0.0292969502210219
-0.0240376453256325,-0.0294702414909499
-0.0206046772279722,-0.0299213479548435
-0.0162959873232466,-0.0297612609920129
-0.011987297418521,-0.0296845185873719
-0.00799386736433886,-0.0298855913766965
-0.00522644784004811,-0.0303644793599866
-0.00144319101956173,-0.0306211151881042
-0.00431541993277087,-0.0304054651864806
-0.00883400584326271,-0.0303565043012362
-0.00844854963418929,-0.0314743672306471
-0.00347431115609416,-0.0314809693841958
0.00269090897960976,-0.0314042269795549
0.00710468550118316,-0.0318275519240519
0.0109580000662348,-0.0322786583879455
0.0179288842644386,-0.0318407562311493
0.0242342198892729,-0.0315139801519394
0.0267214084353028,-0.0314928007860917
0.0294187702150284,-0.0309993355905025
0.0396123106632322,-0.0313948790156029
0.0478092053913274,-0.0330128092941517
0.0501212495759443,-0.0346029580533039
0.0509971099969741,-0.0333316103146113
0.0567419836652867,-0.032782582080229
0.0667253508797949,-0.0335392852574845
0.0745369280127813,-0.0341570808377574
0.0741167201593547,-0.03405255691372
0.0700184807162542,-0.0343091927418377
0.0652897215720666,-0.0359826860591795
0.0629429257430965,-0.0366004816394523
0.0605611010418438,-0.0373016217779149
0.0577939587454824,-0.0373915684896533
0.0538358347915123,-0.0377593303953572
0.0467951700766727,-0.038071529262268
0.0366369357286809,-0.0374947195084891
0.0270741922094934,-0.0375013216620379
0.0210843936631319,-0.0372578901410177
0.0116967945053575,-0.0374033998915491
0.0010481559454092,-0.037771161797253
-0.00911007840258263,-0.0370276629270949
-0.0147145593538353,-0.036950920522454
-0.0202139536882401,-0.0370686487535889
-0.0300569281856885,-0.0371585954653273
-0.0345755140961804,-0.0366929117891347
-0.0330691339740635,-0.0375051780051834
-0.029285877153577,-0.0372617464841631
-0.0289704786890689,-0.0379906681420222
-0.0314573900071694,-0.0384417746059157
-0.0350652252383134,-0.038226124604292
-0.0354504042194574,-0.0371492475013753
-0.0308264544641884,-0.0366002192669929
-0.024976494179028,-0.0380236789097658
-0.0209480352525633,-0.0373913061171939
-0.018215644600555,-0.0364533366112599
-0.0143273011632208,-0.0360432159738603
-0.00525468462806051,-0.0360775996468056
0.00346764318427376,-0.0351396301408715
0.0110690470835645,-0.0334793411306272
0.0129607448007901,-0.0333470356871933
0.0140467784555156,-0.0333258563213455
0.016849226852089,-0.0333046769554976
0.0185657802079015,-0.0332279345508567
0.0190913519061053,-0.0328178139134571
0.018741201797244,-0.0335467355713162
0.0194769467291434,-0.0334144301278822
0.0196872585768038,-0.0337544105141895
0.0186015021500077,-0.0339554833035142
0.0119111261579941,-0.0340454300152526
0.00395971076380663,-0.0337742169748359
-0.000523846274402592,-0.033753037608988
-0.00360624842130753,-0.0337874212819333
-0.00462194710353846,-0.033238393047551
-0.00371105781022586,-0.0336894995114446
-0.00465669874789162,-0.0337516647037864
-0.011452161356753,-0.0342583342064731
-0.0167413824574622,-0.0343760624376081
-0.0174418212891497,-0.0339103787614155
-0.0173015671860546,-0.0343892667447056
-0.0201037383546985,-0.0344236504176509
-0.0239918045641034,-0.0350414459979237
-0.0280199862626387,-0.034770232957507
-0.0263734906513913,-0.034943524227435
-0.0291056040754701,-0.0353112861331389
-0.0294907830566142,-0.0351234176509118
-0.0282646339127581,-0.0347410785329088
-0.0247265791982499,-0.0364145718502507
-0.0221693329076548,-0.036504518561989
-0.0232901182067336,-0.0358165827306239
-0.0211532183835299,-0.0349897393022761
-0.0191914629217391,-0.035607534882549
-0.01295618504147,-0.0359197337494598
-0.00644067618294008,-0.0357040837478362
-0.00160655319397535,-0.035766248940178
0.00417334934661984,-0.0353283467833819
0.010303540610041,-0.0346959739908099
0.0122652960718318,-0.034119164237031
0.00907780730807916,-0.0340424218323901
0.00806210862584822,-0.0342990576605078
0.00988374859850861,-0.0338889370231083
0.0143325539923646,-0.0335621609438984
0.0206378896171989,-0.033207603345292
0.0274336294539897,-0.0323529783975476
0.0331084453777369,-0.0328596479002343
0.0381877704726798,-0.0333663174029209
0.0353855993040358,-0.0321227511836248
0.0405700110158265,-0.0316015044686391
0.0426018242221826,-0.0311080392730499
0.0395894798198429,-0.0308923892714262
0.0353160960153293,-0.0297321676103198
0.0311477988276636,-0.029210920895334
0.0295015804443457,-0.0296620273592276
0.0232315509197235,-0.0292796882412246
0.0168214059059707,-0.0292862903947734
0.0120225890172181,-0.0295151447034945
0.00725880100074797,-0.0283827045617846
0.00175940666634306,-0.0279725839243851
-0.00486091158110531,-0.0287570686210373
-0.0141784529943145,-0.0292081750849309
-0.0186620100325238,-0.0277145751910659
-0.0170505432935592,-0.0269710763209077
-0.00881861969318155,-0.027255493668422
-0.0014273890275865,-0.0269287175892122
0.000674481923334708,-0.0259629665638816
-0.000481332248026741,-0.0258862241592407
-0.00524512026449683,-0.026170641506755
-0.0129863624249886,-0.0267050925288382
-0.0207976623300457,-0.0261005012556628
-0.0168392611481462,-0.0263015740449874
-0.0120401670314641,-0.0258914534075878
-0.00622523561858636,-0.0257591479641537
-0.000305217588860795,-0.0259324392340818
0.00298763501966917,-0.0250778142863375
0.0092229128999382,-0.0249177273235069
0.0179452407122724,-0.025091018593435
0.0251963558887371,-0.025014276188794
0.0279988042853105,-0.0250764413811359
0.0312215991492753,-0.0256386739226157
0.0330432391219356,-0.0256174945567678
0.0333236087141612,-0.0249851217641958
0.034479700113452,-0.0249361608789515
0.0383330146785037,-0.0255817379786209
0.0412055208196424,-0.024754894550273
0.0417661213901289,-0.0249281858202011
0.0394893833057241,-0.0247958803767671
0.037142587476754,-0.0245524488557469
0.034970936009197,-0.0239200760631749
0.0324139669465313,-0.0237322075809478
0.0312231239028873,-0.0241277510060482
0.0332549371092432,-0.0245232944311487
0.0311183145139688,-0.0246965857010767
0.0241477075436944,-0.0248698769710048
0.0166166386168983,-0.0257654877452432
0.0119229083449934,-0.0254942747048263
0.0113625850024363,-0.0252786247032026
0.0137446869316185,-0.0245351258330444
0.0134295656950397,-0.0253473920490932
0.00873583542313484,-0.0252984311638488
0.00519805793655609,-0.0246104953324837
0.00288629097986856,-0.0246726605248256
0.00250111199872451,-0.0250959854693226
0.00537361813986311,-0.0249914615452851
0.00978739466143652,-0.0235534246902131
0.0133254493759447,-0.0237267159601411
0.0137109055850181,-0.0244278560986037
0.0142014484109393,-0.0241566430581869
0.0153925686825127,-0.0239409930565633
0.0153226495519121,-0.0245032255980431
0.0126605938723986,-0.0255933070080573
0.00866744104614581,-0.0255165646034165
0.00218723828782793,-0.0245230320586894
-0.000439788519403028,-0.0253908613135312
0.00141688032553995,-0.0253696819476833
0.0106646412221134,-0.0256263177758011
0.0208932105425998,-0.0255773568905567
0.0256572757869993,-0.0255006144859158
0.0243963749987901,-0.0248682416933438
0.0221546657866678,-0.0251804405602547
0.0199129565745455,-0.0250203535974241
0.0178463917238363,-0.024526888401835
0.018477050038888,-0.0245334905553837
0.0233462019001353,-0.0247067818253117
0.0304922304597522,-0.0251023252504122
0.0356766421715431,-0.0252756165203403
0.0362722716143121,-0.0247821513247511
0.0345559954864289,-0.0242053415709722
0.0356420291411545,-0.0242952882827107
0.0406512964915322,-0.0252186805763456
0.0463611412875621,-0.0245863077837737
0.0501443981080485,-0.0242039686657706
0.0521411824421219,-0.0228492763688884
0.0582713737055431,-0.0231336937164026
0.0634207565450514,-0.02266801004021
0.068535110512277,-0.0227023937131553
0.0740698109468938,-0.0230423740994627
0.0776428945336846,-0.0227155980202528
0.0780633796150406,-0.0222776958634567
0.0756815549137879,-0.0218953567454537
0.0759619245060135,-0.0220964295347782
0.0813565094514999,-0.0225475359986718
0.0807611572366603,-0.0218873816867033
0.0784844191522554,-0.0216995132044761
0.0812868675488288,-0.0213727371252662
0.0844396046682283,-0.0215182468757977
0.0814973180104538,-0.0212470338353809
0.0734057871271359,-0.0212258544695331
0.0647537942872963,-0.0211491120648922
0.0588340534855001,-0.0210168066214581
0.0544205541918561,-0.021134534852593
0.0466793120313643,-0.0208633218121762
0.0377821170855464,-0.0207865794075353
0.0262227278462503,-0.0210987782744461
0.0166599843270629,-0.0212442880249775
0.0107752723975494,-0.0216120499306815
0.00289391474792708,-0.0220909379139717
-0.00204501762995599,-0.0220975400675204
-0.00495227541544787,-0.0222708313374484
-0.0102064676438745,-0.0226385932431523
-0.019944355524475,-0.022589632357908
-0.0289466370871407,-0.0245687223886119
-0.0319589814894804,-0.0249642658137123
-0.0358120188266026,-0.0246652712538989
-0.0417667885006814,-0.0243107136552925
-0.0415214477807385,-0.0243173158088412
-0.0378082487048173,-0.024379481001183
-0.0384386297919395,-0.0240249234025766
-0.0394543284741704,-0.0235870212457806
-0.0411005468574883,-0.0230379930113983
-0.040084570947328,-0.0227945614903781
-0.0367566894665155,-0.0230234157990992
-0.0330785192628768,-0.0230022364332514
-0.030135955377173,-0.0235089059359381
-0.0303810188691865,-0.0235155080894869
-0.0328329013150044,-0.0237999254370012
-0.0330429359347354,-0.0246121916530499
-0.029259679114249,-0.0242576340544434
-0.0269826638019148,-0.0239864210140267
-0.0289441420357762,-0.0238818970899892
-0.0311157935033332,-0.0238607177241414
-0.0312557703784989,-0.0240617905134661
-0.0300646501069255,-0.0232905101239113
-0.0268768841152434,-0.0227137003701325
-0.0258258793328005,-0.022359142771526
-0.0259658562079662,-0.0221157112505058
-0.0213769353249798,-0.0219556242876752
-0.0172433897816673,-0.0214065960532929
-0.0153867209367244,-0.0219688285947727
-0.0182939787222162,-0.0222810274616835
-0.0243888638854254,-0.0214541840333357
-0.0338815496600477,-0.0211551894735224
-0.0325853427716264,-0.021356262262847
-0.0256494874457052,-0.0213350828969992
-0.0265250706388057,-0.0215639372057203
-0.0295374150411454,-0.0214871948010794
-0.0299576228945721,-0.0211604187218695
-0.02757552096539,-0.0211114578366251
-0.0253335345253383,-0.0207569002380186
-0.0253684247836562,-0.0209301915079467
-0.0300621550555611,-0.0207978860645127
-0.0375581951100746,-0.0199710426361648
-0.0410959725966534,-0.0196164850375584
-0.0438280860207322,-0.0195119611135209
-0.0472958057627458,-0.0187684622433627
-0.0516742761841073,-0.0180249633732045
-0.0568934395402512,-0.0180593470461498
-0.0628832380866125,-0.0180659491996986
-0.0695035563340609,-0.0176558285622991
-0.0787510400027049,-0.0173012709636926
-0.0863171378017836,-0.0171967470396551
-0.0908357237122754,-0.0172311307126004
-0.0934627505195064,-0.0167376655170112
-0.0967553259001069,-0.0166609231123702
-0.0947935704383161,-0.0165841807077293
-0.0957041825036993,-0.0161740600703298
-0.0996973353299519,-0.0164862589372406
-0.10053788965077,-0.0155482894313066
-0.100747924270501,-0.015082605755114
-0.105126394691862,-0.0148391742340938
-0.105616660289854,-0.0150680285428149
-0.103865078061759,-0.015046849176967
-0.0995914170293161,-0.0144700394231882
-0.0972443439724166,-0.0140599187857886
-0.0941616645975823,-0.0136497981483891
-0.0893625704809002,-0.0134619296661621
-0.084738620725631,-0.0134129687809177
-0.0799745554812315,-0.0140307643611905
-0.0767867894895495,-0.0133983915686186
-0.0721278108619978,-0.013238304605788
-0.0635806274110766,-0.0141339153800265
-0.0524062785389597,-0.0140849544947821
-0.0397957459032559,-0.0141749012065205
-0.0273253287566825,-0.0147926967867934
-0.0172719037976091,-0.0145770467851697
-0.0122276075749488,-0.014361396783546
-0.0110364873033754,-0.0148402847668361
-0.012892878920389,-0.0150135760367642
-0.0114215276705547,-0.0147979260351405
-0.00595688498050314,-0.0144155869171376
0.00269538508726589,-0.014505533628876
0.0102267312419914,-0.0149010770539765
0.0136947282119344,-0.0148521161687321
0.0119434232117687,-0.0146920292059016
0.0105774358067116,-0.0151986987085882
0.0102973434424154,-0.0144829813578266
0.012364185521054,-0.0154341551708581
0.0195452429529535,-0.0151907236498379
0.0271816757245269,-0.0155584855555417
0.0346429641346871,-0.0150928018793491
0.0388815962948475,-0.014654899722553
0.0437857770283774,-0.0147170649148949
0.0503363147591899,-0.0139457845253401
0.0572371412128285,-0.0139246051594923
0.0571321932099454,-0.0143201485845927
0.0496711820277144,-0.0144934398545207
0.0387423124895052,-0.0139999746589315
0.0246258155735786,-0.013339820346963
0.0153082741603694,-0.0132630779423221
0.016394307815095,-0.0128529573049225
0.0206329399752554,-0.0120538953959713
0.0197923856544375,-0.0115882117197787
0.0138376159803587,-0.0114836877957412
0.00168273591225823,-0.012045920337221
-0.00963145122105967,-0.0117191442580112
-0.0122935069005732,-0.0103644519611289
-0.0121882816697607,-0.0108155584250225
-0.0145701063710134,-0.0120167659126229
-0.0164615268603095,-0.0115788637558267
-0.0175122544148231,-0.0118077180645478
-0.0225913022818366,-0.0124255136448207
-0.0315585549722198,-0.0127654940311281
-0.0388794506653202,-0.0126054070682976
-0.0410160732605947,-0.0128342613770187
-0.0411210212634778,-0.0134798384766882
-0.043993250176687,-0.0126529950483403
-0.0525051275273962,-0.0127429417600787
-0.0608418605166924,-0.0128051069524206
-0.057233748057619,-0.0131728688581245
-0.0497724596474587,-0.0143462948263284
-0.0378975333296896,-0.0147974012902219
-0.0300859561967032,-0.0150540371183397
-0.0266880169713255,-0.0148661686361125
-0.0239205974470347,-0.013900417610782
-0.0278086636564396,-0.0137125491285548
-0.0325724516729096,-0.0139969664760691
-0.0278434153007927,-0.0151148294054799
-0.0227290613335671,-0.0155937173887701
-0.0211876523391677,-0.0148780000380085
-0.0218180334262899,-0.0154680140988848
-0.0217828659400427,-0.0161691542373474
-0.021782727326078,-0.0159257227163271
-0.0211520690110263,-0.0148210640940137
-0.0194004867829312,-0.0159944900622176
-0.0176839334271187,-0.0162789074097319
-0.0210465665522844,-0.0163410726020737
-0.0263708165252762,-0.0149585987857949
-0.0314498643922898,-0.0155763943660678
-0.0332011693924555,-0.0162775345045303
-0.0303987209958821,-0.0161730105804928
-0.0275962725993087,-0.0159295790594726
-0.0343567063358874,-0.0162973409651764
-0.0413973710507271,-0.01674844742907
-0.0470368808742624,-0.0168106126214118
-0.047632233089102,-0.0162615843870296
-0.0460207663501373,-0.015295833361699
-0.0457053678856292,-0.0157747213449891
-0.0428328617444905,-0.017503777701124
-0.0381038253723737,-0.0159823962878624
-0.0363872720165612,-0.0146832670297733
-0.0314480624107487,-0.0147454322221151
-0.022760763470697,-0.0148075974144569
-0.0121819054273845,-0.0165366537705919
-0.00549125220744147,-0.0160987516137958
-0.000271811623368003,-0.0148274038751032
0.00750473663733584,-0.0163342080760658
0.0139151588790179,-0.0177298861994421
0.0229177176696131,-0.0199867914241115
0.0329010848841212,-0.0197711414224877
0.0434449140551511,-0.0193610207850882
0.0529028481854201,-0.0192009338222577
0.0540239107124283,-0.0197353848443409
0.0506963064595452,-0.0199364576336655
0.0534987548561186,-0.0224156150135073
0.0609950721385615,-0.0214220824687801
0.0648834155758958,-0.021484247661122
0.0654790450186647,-0.0224909845129466
0.064533404080999,-0.0214141074100299
0.0621165505074637,-0.020337230307113
0.0609257074638197,-0.0208716813291963
0.0636580981158279,-0.0224340485689519
0.0619067931156622,-0.0203848182871558
0.0577384959279965,-0.0201969498049286
0.0522391015935916,-0.021898224641667
0.0444628305608172,-0.0234050288426296
0.0362311841883688,-0.0216336137547989
0.0331137531691813,-0.0207234257682614
0.030872043957059,-0.0225080451631895
0.0219047912666759,-0.024820513426652
0.0124821632366189,-0.0256605611620973
0.00372508377993139,-0.0260005415484047
-0.00226471476642994,-0.0253403872364362
-0.0109517364785522,-0.0257914937003298
-0.0193585272124136,-0.0281039619637923
-0.0233516800386663,-0.0274438076518238
-0.0227210217236147,-0.0262280229519243
-0.0251729041694326,-0.0254011795235765
-0.0291660569956853,-0.0262412272590218
-0.0310925063572641,-0.0266645522035188
-0.0307771078927559,-0.0276712890553434
-0.0285000925804217,-0.0283446476744094
-0.0277293187762396,-0.0287679726189064
-0.0290953061812966,-0.0273854988026275
-0.0302160914803753,-0.0284200171738487
-0.0284294803799977,-0.0297045692196388
-0.0254168587497286,-0.029433356179222
-0.021563544184677,-0.0300789332788914
-0.0156084972826688,-0.0314190483634746
-0.0102839700817476,-0.0314812135558165
-0.00839227236452202,-0.0290986050412618
-0.00870739360110083,-0.0294108039081726
-0.00685072475615787,-0.0297230027750835
-0.00282226582969311,-0.0298129494868219
0.00229208813753243,-0.0302362744313189
0.00625048931943184,-0.0311318852055573
0.0116100453926357,-0.0299716635444509
0.0178803521451874,-0.0302560808919652
0.0262874201069782,-0.0297348341769795
0.0311916008405082,-0.0295469656947523
0.0362709259354511,-0.0302758873526114
0.0407547602015898,-0.0306992122971084
0.0466397493590328,-0.0309558481252261
0.0495122555001714,-0.0299900970998955
0.0464999110978318,-0.028274245050858
0.0455192412878834,-0.0285308808789757
0.0512290860839133,-0.02800963416399
0.0537162746299433,-0.0284607406278835
0.0575345603227123,-0.0292174438051391
0.0603370087192857,-0.0268070537711879
0.0590761079310765,-0.0261191179398228
0.0568343987189542,-0.0264035352873371
0.0542774296562885,-0.0288826926671789
0.0525611535284053,-0.0305006229457277
0.0539274181613917,-0.0273679134074661
0.0582711369383999,-0.0241796408304114
0.0600577480387777,-0.0247140918524946
0.0587968472505684,-0.0250818537581985
0.0569754845058375,-0.0262552797264024
0.053227533785563,-0.0264841340351235
0.0440501078614843,-0.0258795427619481
0.0342071333640358,-0.0257750188379106
0.0269913242877831,-0.0261427807436145
0.0178138983637044,-0.0260104753001805
0.00506352746679959,-0.0256281361821776
-0.00740661245184442,-0.0261625872042608
-0.013641613104184,-0.0250857101013439
-0.0144471385527193,-0.0257868502398065
-0.0143419133219068,-0.0270436207662
-0.0197362210394638,-0.0276058533076798
-0.0235192006320208,-0.027834707616401
-0.0309451829419691,-0.0284247216772773
-0.0387564828470262,-0.0288758281411709
-0.0450265123716484,-0.02960474979903
-0.0536434763392055,-0.0279166792693891
-0.0613496896274147,-0.0270064912828516
-0.0659383332824717,-0.0264019000096762
-0.0737846620598114,-0.0260473424110698
-0.0849587337039989,-0.0265817934331531
-0.0928050624813386,-0.0249770674617018
-0.0976739371146566,-0.0220388285592161
-0.101491945579496,-0.0192950602925062
-0.103103135090531,-0.0184126538253653
-0.0988995318026538,-0.020280617778483
-0.0969728052131456,-0.0193426482725489
-0.0986540524687461,-0.0163210648118736
-0.0967273258792379,-0.0176611798964568
-0.0885304311511428,-0.0151674453043159
-0.0807889117627216,-0.0135071562940715
-0.07693559719767,-0.0133748508506375
-0.0729071382712053,-0.0125202259028932
-0.0707001807034362,-0.00658158290557984
-0.0669519527552324,-0.000559595350076859
-0.0625031473613765,-0.00178858435707385
-0.0539559639104554,-0.00237859841795018
-0.0448483185030124,0.000615203523328639
-0.0380525786662216,0.00460914016288336
-0.0299957994272569,0.00660280740588629
-0.0223943955279661,0.0126803580001824
-0.0149681359900884,0.0160353196936164
-0.0074718187076454,0.0168621631219643
-0.000255732403463336,0.0186335782097949
0.00485862156376228,0.0208217160885737
0.00790627206631401,0.0225931311764043
0.0069256022563657,0.0234755376435453
0.00275730506870001,0.0233300278930138
-0.00810150672494398,0.0278240318817064
-0.0127952369968488,0.0284841861936749
-0.012269665298645,0.0250882386737469
-0.0137757681928325,0.0241092833413189
-0.0179790942527809,0.0256306647545805
-0.02326831535349,0.0297912905105145
-0.0311847018753948,0.0320072099086899
-0.0407474453945823,0.0266943375503998
-0.0446355116039871,0.0240207095347821
-0.0490490108976311,0.0259865952583886
-0.0525167306396446,0.0262022452600123
-0.0566149700827451,0.0258900463931015
-0.0641460390095412,0.0244943682697252
-0.0699606931944896,0.023959917247642
-0.0752499142951988,0.0186470448893519
-0.0769311615507993,0.0130007942983032
-0.0752146081949868,0.0132164442999268
-0.075214469581022,0.0136543464567229
-0.0750391866056443,0.0115085673096398
-0.0728672579101579,0.0101684522250566
-0.0709405313206497,0.0100229424745251
-0.0644600513344023,0.00540460810114875
-0.0543015397584812,0.00111965196053101
-0.0414808338890817,-0.000359370721035035
-0.0328285638213127,-0.00197730099958375
-0.0216191860769132,-0.00467871053459803
-0.00813293163414422,-0.00774127982176743
0.0025860418982988,-0.0107760675895403
0.00896143526769819,-0.0108382327818822
0.0146362511914455,-0.0147342476509481
0.0221325684738884,-0.0173523126277727
0.0272118935688313,-0.0166365952770111
0.0313454391121438,-0.0165598528723701
0.0362496198456737,-0.0178999679569534
0.0389119527531166,-0.023490655509209
0.0440613355926248,-0.0269977291067233
0.0497711803886547,-0.0261153226395824
0.0544651878884889,-0.0261219247931312
0.0543252110133232,-0.0266008127764213
0.0530292813528314,-0.0278298017834183
0.0554814410265787,-0.0299755809305016
0.057758456338913,-0.0312601329762917
0.0545709675751603,-0.0313222981686335
0.0525744604690163,-0.0320512198264926
0.0537655807405896,-0.0320300404606448
0.0558674516915108,-0.0318977350172108
0.0599309394902581,-0.0314042698216216
0.0655707265417228,-0.0318831578049117
0.0694940988513397,-0.0334177435252708
0.0717010564191088,-0.0345633879740781
0.0741181872205735,-0.0353756541901269
0.0785669926144295,-0.0326874489622101
0.0866938295979594,-0.0316939164174829
0.0946104933477937,-0.0310893251443076
0.100390395888389,-0.0304013893129425
0.105539778727897,-0.0306858066604568
0.110689161567405,-0.0290255176502125
0.115067909216696,-0.0285320524546233
0.115278221064356,-0.0289831589185169
0.113001482979951,-0.0281840970095656
0.107467059773264,-0.0272461275036316
0.102633214012229,-0.0288918393015769
0.0974140506560845,-0.0295096348818498
0.0944017062537449,-0.0269325557315192
0.0940865850171661,-0.0256889895122232
0.0956630228838482,-0.0246676754480995
0.0924755341200955,-0.0230629494766482
0.0854698982775385,-0.0246530982358004
0.079129811008351,-0.0247430449475388
0.0737004744185113,-0.02416623519376
0.0670100984264977,-0.0232560472072225
0.0580428457361146,-0.0234849015159436
0.045712821306601,-0.0222691168160441
0.0368156263607831,-0.0214978364264894
0.0319817805997479,-0.0211154973084864
0.0269727904772995,-0.0216499483305696
0.0207377898249598,-0.0221288363138598
0.0111750463057723,-0.0215242450406843
0.00129704293604136,-0.0193916702006986
-0.00935159562390698,-0.0183147930977818
-0.0163222025941814,-0.019349311469003
-0.0193695758688036,-0.0184391234824655
-0.0230824977167954,-0.0183623810778246
-0.0229772724859828,-0.0183967647507698
-0.0200697374725615,-0.0169031648569047
-0.0178627799047925,-0.0165486072582982
-0.017582410312567,-0.0166663354894331
-0.0219608807339284,-0.0162562148520336
-0.0259190046878985,-0.0166795397965306
-0.025358404117412,-0.016769486508269
-0.0237119085061647,-0.0143313149549212
-0.0237117698921999,-0.0137545052011423
-0.0263738255717135,-0.0133999476025359
-0.027704784104488,-0.0139621801440157
-0.0243418737513929,-0.0128019584829092
-0.0184919134662326,-0.0124474008843027
-0.0145335122843331,-0.00937025438483424
-0.0114858617817815,-0.00951576413536571
-0.00980433729825151,-0.00938345869193172
-0.0116607289152651,-0.00905668261272182
-0.011065099472496,-0.00845209133954648
-0.00717675603516176,-0.00831978589611244
-0.00132679575000138,-0.00868754780181639
0.00315703851613718,-0.00772179677648584
0.00536399608390621,-0.00650601207658633
0.0120546493038491,-0.00598476536160059
0.0188153602683573,-0.00621361967032179
0.0226336459611263,-0.00630356638206019
0.0217580627680258,-0.00658798372957443
0.0215129992760123,-0.00637233372795074
0.0270827285829118,-0.00682344019184435
0.0349293345881808,-0.00680226082599659
0.0413047279575803,-0.00683664449894181
0.0456134178623058,-0.00739887704042163
0.0465943649001836,-0.0081277986982807
0.0457888394516483,-0.00688423247898465
0.0444228520465913,-0.0062518596864127
0.0390635732013168,-0.00548057929685803
0.0328636014212599,-0.00551496296980333
0.0272591204700072,-0.0065216998216279
0.0190975318421241,-0.00680611716914215
0.0132478487848931,-0.00742391274941497
0.0143689113119012,-0.0074027333835671
0.0178018794095616,-0.00860394087116761
0.019448375020809,-0.00930508100963019
0.0155603088114041,-0.00867270821705825
0.0113219538791732,-0.00776252023052078
0.0125130741507466,-0.00799137453924196
0.0133889345717765,-0.00783128757641143
0.0131788999520455,-0.00711557022564976
0.0104818154002493,-0.0071221723791985
0.0100265786745401,-0.0073510266879196
0.00704926314448312,-0.0074131918802614
0.00421206310355653,-0.00805876897993085
0.00228561374197772,-0.00837096784684158
0.000744481975507617,-0.00829422544220058
-0.000831678663245062,-0.00913427317764587
-0.0027230991525412,-0.00905753077300495
-0.00338850911194604,-0.00878631773258821
-0.00426409230504654,-0.00848732317277483
-0.00559505083782096,-0.00879952203968557
-0.00562994109613894,-0.00797267861133782
-0.00612020669413076,-0.00856269267221413
-0.00717093424864426,-0.008624857864556
-0.00657530480587525,-0.00896483825086339
-0.00818649431691052,-0.00819355786130861
-0.00976265495566328,-0.00822794153425385
-0.0135456345482203,-0.00748444266409565
-0.0145613332304512,-0.00718544810428233
-0.0123193467903996,-0.0064141677147276
-0.00839597448078275,-0.00694861873681084
-0.00625907465757894,-0.00670518721579063
-0.00685442687241863,-0.00604503290382212
-0.00804526991606252,-0.00613497961556052
-0.00744964047329345,-0.00722506102557475
-0.00363135478052442,-0.0075650414118821
-0.00208994578612496,-0.00846065218612049
-0.00233500927813851,-0.00785606091294507
-0.00310550585439117,-0.00875167168718343
-0.00373588694151341,-0.00848045864676666
-0.00191424696885312,-0.00773695977660849
0.00204415421304638,-0.00871591510903651
0.00719353705255451,-0.00841692054922315
0.0130084684654322,-0.00792345535363399
0.0188934576228752,-0.00795783902657934
0.0236925517395573,-0.0080755672577143
0.0274407796877611,-0.00777657269790101
0.0274409183017259,-0.00711641838593249
0.0278964322553645,-0.00645626407396398
0.0279666286138944,-0.00704627813484034
0.0285972869289461,-0.00877533449097524
0.0295081762222586,-0.0071150454807309
0.0271964092655711,-0.00701052155669343
0.0197704269556228,-0.0077950062533456
0.0130450220913267,-0.00896843222154955
0.00961233122159571,-0.00900281589449489
0.010628307131756,-0.00992620818812984
0.0110838210853946,-0.00996059186107514
0.0106285843596854,-0.0101894461697963
0.00600491183234568,-0.00930703970265537
0.00197673013381034,-0.00856354083249723
-0.00149098960820325,-0.00829232779208042
-0.0049236804779342,-0.00799333323226711
-0.00688515871179556,-0.00791659082762618
-0.00856640596739607,-0.00814544513634736
-0.0131550496224532,-0.00623512245153399
-0.0190747904242493,-0.00657510283784137
-0.0246442425032194,-0.00647057891380392
-0.027481442544146,-0.00664387018373198
-0.0255547159546379,-0.00773395159374624
-0.0206855640933906,-0.0084350917322088
-0.0183735199087737,-0.00919179490946444
-0.0180581214442656,-0.00958733833456488
-0.0205100038900835,-0.00914943617776878
-0.0151504478168796,-0.00846150034640369
-0.0098259206159584,-0.00866257313572825
-0.00509688424384155,-0.00925258719660456
-0.000297790127159444,-0.00948144150532573
0.00159390759006618,-0.00862681655758141
0.00131381522576999,-0.00732768729949222
0.00331059955984337,-0.00833442415131681
0.00565767261674284,-0.00909112732857242
0.0109121420730989,-0.00781977958987977
0.0125586376843462,-0.00704849920032501
0.0104220150890718,-0.00672172312111513
0.00352146586336258,-0.00728395566259494
-0.00425480516941186,-0.00795731428166092
-0.010629921310882,-0.00724159693089935
-0.0137473523300695,-0.00744266972022396
-0.0150082531182787,-0.008171591378083
-0.0172149334581183,-0.00792815985706281
-0.0241154826838275,-0.00849039239854257
-0.0297900213796454,-0.00852477607148791
-0.0374962346678547,-0.00769793264314009
-0.0447821014886726,-0.008621324936775
-0.049335716271447,-0.00907243140066854
-0.0482496826167214,-0.00927350418999313
-0.0527682685272132,-0.00930788786293841
-0.0557105551849877,-0.00817544772122854
-0.0599839389895012,-0.00695966302132903
-0.0672698058103191,-0.00657732390332605
-0.0723838825496152,-0.00644501845989206
-0.0763770353758679,-0.00670165428800978
-0.0811057945200554,-0.00726388682948959
-0.0858695825365254,-0.00693711075027969
-0.0890570713002781,-0.00627695643831117
-0.0877258355395743,-0.00703365961556678
-0.0831719435288705,-0.00859602685532235
-0.072768229846971,-0.00874153660585386
-0.0620842851868106,-0.00910929851155779
-0.0552184876054546,-0.00844914419958929
-0.0495086428094247,-0.00942809953201734
-0.0449197219264382,-0.00999033207349714
-0.0393149637472561,-0.0106359091731666
-0.0310129824023131,-0.0096979396672325
-0.0315733057448701,-0.0091211299134536
-0.0305573298347098,-0.00962779941614022
-0.0281401990332451,-0.0103011580352062
-0.0264937034219977,-0.0113634579258239
-0.0259331028515113,-0.0118145643897175
-0.027509263490264,-0.0117656035044731
-0.0331838021860819,-0.0117999871774183
-0.0351803092922259,-0.0117788078115705
-0.0332886115750004,-0.0121465697172744
-0.0296454702436444,-0.0120698273126335
-0.0262825598905493,-0.0119375218691995
-0.0253016128526715,-0.0117218718675758
-0.0248110700267503,-0.0118118185793142
-0.0232696610323508,-0.0114572609807078
-0.0228842048232774,-0.01063041755236
-0.0215529690625736,-0.011053742496857
-0.0229189564676307,-0.0108103109758367
-0.0256860987639921,-0.0105390979354199
-0.0267368263185057,-0.0101289772980205
-0.0277525250007367,-0.0119969412511382
-0.0278224441313373,-0.013614871529687
-0.02778727664509,-0.0110933554181495
-0.0293284084115601,-0.0103220750285948
-0.0234784481263998,-0.0102175511045573
-0.0195200469445003,-0.00983521198655435
-0.0166825696756443,-0.00906393159699964
-0.0140902945127666,-0.00820930664925528
-0.0130042608580411,-0.00841037943857981
-0.0121984581815764,-0.00880592286368034
-0.00995647174152466,-0.00800686095472912
-0.00943090004332083,-0.00812458918586412
-0.00883527060055181,-0.00790893918424044
-0.00746900596756538,-0.00780441526020293
-0.00396598012533984,-0.00825552172409656
-0.00084827187822299,-0.00828990539704184
0.000973368094437338,-0.00799091083722849
-0.00126834111768489,-0.0095254965575876
-0.00287953062872019,-0.00855974553225702
-0.00403534480008157,-0.0069550195608058
-0.00273913791166031,-0.00679493259797517
-0.000322007110195603,-0.00655150107695499
0.00206009481898658,-0.00716929665722784
0.00696427555251654,-0.00792599983448346
0.0055632592751769,-0.00829376174018735
0.00272605923425036,-0.00741135527304645
0.00552850763082371,-0.00766799110116408
0.0117637855110928,-0.00753568565773006
0.0193651894103835,-0.00804235516041671
0.0246196588667396,-0.00657653678594821
0.0272469629018999,-0.00441618042656593
0.0335172696544516,-0.00464503473528708
0.041328846787438,-0.00551286399012893
0.0502613478334678,-0.00468602056178114
0.0534841426974325,-0.00410921080800228
0.0512424334853103,-0.00433806511672347
0.049280955251449,-0.0051225498133757
0.0481601699523702,-0.00482355525356236
0.0509275894766609,-0.00355220751486972
0.055901827954756,-0.00425334765333223
0.0676716676556772,-0.00442663892326028
0.0771996595305114,-0.00293303902939526
0.081158060712411,-0.00188394344587507
0.082909642940506,-0.00141825976968236
0.0863776399104489,-0.000785886977110427
0.0923677156847397,0.000152082528823622
0.0946447309970739,0.00134008570932661
0.101825788428973,0.00158351723034683
0.108306268415221,0.000826814053091179
0.111248832300924,0.000875774938335523
0.109392440683911,0.000535794552028158
0.103963104094071,0.00283505850839318
0.102702203305862,0.00330074218458581
0.103367890493196,0.00276629116250258
0.0993397087946611,0.003120848761109
0.092789448291778,0.00380878459247398
0.0864843898948731,0.00471897257901147
0.0898823291202508,0.00515687473580754
0.0966780689570416,0.00451129763613813
0.101442134201441,0.00486585523474459
0.100111175668667,0.00522041283335106
0.096398253820675,0.00574165954833681
0.0928254474618136,0.00504051940987425
0.0851892919181696,0.00533951396968759
0.0783938293093083,0.00602744980105271
0.0746458785890338,0.00638200739965916
0.0695318018497377,0.00690325411464491
0.0623860505180502,0.00670218132532036
0.0556606456537541,0.00644554549720269
0.050896857637284,0.00716126284796437
0.0467635893219009,0.00779363564053636
0.0441715913869526,0.00887051274345317
0.040879016006352,0.00928063338085271
0.0365005455849906,0.0083572410872178
0.0345040384788467,0.00848954653065184
0.0318069539270505,0.00956642363356859
0.029495186970363,0.00953203996062329
0.02858457490498,0.00910871501612629
0.0279892226901403,0.00993555844447406
0.0289701697280181,0.010012300849115
0.0247318147957871,0.00811655537660082
0.0217194703934474,0.00866558361098315
0.0151341810182817,0.00946464551993441
0.0107557105969203,0.0106248671810409
0.00725296198262409,0.0102293237559405
0.000912874713436592,0.00925036842351242
-0.00707356955303348,0.0096327075415154
-0.0172318039010253,0.00998726514012182
-0.0250781326783649,0.00984175538959035
-0.0277401883578785,0.0105296912209554
-0.0298067532085877,0.0108564673001653
-0.0351660320538621,0.010766520588427
-0.0455344396355496,0.0102320695663437
-0.054291519092237,0.0116145433826225
-0.0625932232092506,0.0133581769510565
-0.0686881083724599,0.014018331263025
-0.0728564055601256,0.0140117291094763
-0.0780755689162697,0.0152275138093758
-0.0856766955876311,0.0161099202765166
-0.0930676490252969,0.0154087801380541
-0.0985320144874191,0.0140408835340743
-0.101404243400628,0.014006499861129
-0.105082136376338,0.014944469367063
-0.108024423034112,0.0147433965777384
-0.112052604732647,0.0144311977108276
-0.111632119651291,0.0139800912469341
-0.10939013321124,0.0136678923800232
-0.106867915792927,0.0141057945368193
-0.100212291445267,0.0172107225556844
-0.0945725043938021,0.0178986583870494
-0.0862705230488591,0.0177253671171213
-0.0763922424511988,0.0178021095217622
-0.0702970800600602,0.01621196076261
-0.0664787943672911,0.0167332074775957
-0.0631859417587612,0.0178100845805125
-0.05625008643284,0.0176645748299811
-0.0502249817862667,0.0172968129242771
-0.0434992996940411,0.0182903454690042
-0.0363532711344241,0.0187004661064037
-0.0285416940014378,0.0182215781231136
-0.0192238753602991,0.0193540182648235
-0.0105365764202475,0.0202642062513609
-0.00247979718128282,0.018535149895226
0.00280970114735576,0.01705612721366
0.00631272698958134,0.0175218108898527
0.00918523313072001,0.0175152087363039
0.0126532301006629,0.0171196653112034
0.0157359094754972,0.016724121886103
0.0166467987688098,0.016856427329537
0.0144401184289701,0.0168220436565917
0.0108322831978261,0.0181211729146809
0.00732953458352988,0.0187257641878563
0.00925626117303809,0.0183302207627558
0.00789027376798109,0.0176568621436898
0.00204059071075018,0.0183170164556583
-0.00282828392256774,0.0201162130628855
-0.00626097479229876,0.0193872914050264
-0.00990383889572535,0.016824789466995
-0.0114099417899128,0.0170404394686186
-0.0135115355129046,0.0170616188344665
-0.0166990242766573,0.0170827982003143
-0.0204119461246491,0.017548481876507
-0.0248604742905757,0.017680787319941
-0.0314107347934588,0.0171185547784612
-0.0351586855137332,0.0168619189503435
-0.0387314918725946,0.0174942917429154
-0.0400274215330865,0.0166542440074702
-0.0390815033674913,0.0158141962720249
-0.0349829866964615,0.0163910060258038
-0.0283974200933663,0.0156620843679447
-0.0223022577022278,0.0152387594234478
-0.0177133368192413,0.0154266279056749
-0.00734465200962442,0.0163923789310054
0.00446021656357948,0.0163579952580601
0.0097847437645007,0.0163513931045114
0.0112560950143349,0.0159558496794109
0.0161953046201474,0.0153658356185347
0.0232362465629164,0.0158870823335204
0.0317133722692724,0.0168528333588509
0.0369328128533458,0.0156238443518539
0.0394900591439409,0.0156728052370983
0.0436236046872534,0.0162496149908771
0.0500340269289356,0.0174376181713801
0.0548331210456177,0.0178755203281762
0.0591768398226259,0.0168132204375585
0.0640459916838732,0.0168343998034063
0.0647817366157727,0.0174112095571851
0.0625400274036504,0.0175157334812225
0.0574960084089195,0.0173424422112945
0.0521017006913624,0.0176414367711079
0.0494046161395662,0.0181626834860936
0.0451662612073352,0.0187394932398725
0.0423290611664086,0.0192329584354617
0.0394568322531994,0.0201153649026026
0.0327314273889033,0.020719956175778
0.0239743479322157,0.0211856398519707
0.0143065177961804,0.020428936674715
0.00824666150525391,0.021061309467287
-0.00124602426936832,0.0217214637792554
-0.00863697770703403,0.0221593659360515
-0.0165883931012215,0.0242085962178476
-0.024364664133996,0.0242853386224886
-0.0271668353026399,0.0241120473525605
-0.025660455180523,0.0241054451990118
-0.0309146474089496,0.0250156331855492
-0.0382705719743328,0.0268148297927764
-0.0425089269065638,0.0266415385228483
-0.0441551452898817,0.02735725587361
-0.0450307284829822,0.0284896960153199
-0.0398112878989088,0.0290109427303056
-0.0330505769344006,0.0297822231198603
-0.0248887110785881,0.0300256546408805
-0.0171471916901668,0.0302690861619008
-0.0149052052501151,0.0307625513574899
-0.014940095508433,0.0320616806155791
-0.0190033060792509,0.0321939860590132
-0.0215953040141992,0.0321596023860679
-0.019143144340452,0.0336809837993295
-0.0169011579004003,0.0355079619259532
-0.0138184785255661,0.035029073942663
-0.00950978862084058,0.0348002196339419
0.00218999333551539,0.0343491131700484
0.0125586781451322,0.0352315196371893
0.0202651686612709,0.0363917412982957
0.0235229923975182,0.0365796097805228
0.0227875246935481,0.0369063858597326
0.021071248565665,0.0367886576285977
0.0227878019214775,0.0382266944836696
0.0237687489593552,0.0396647313387416
0.0236988298287547,0.0386857760063135
0.0185497242171759,0.0384569216975923
0.0111237419072275,0.0388392608155953
0.00439833704293135,0.0404439867870466
5.48954938525568e-05,0.0399650988037565
-0.00246704469653059,0.0390694880295181
-0.0046737250363702,0.0396462977832969
-0.00568942371860119,0.0397230401879378
-0.0057243139769191,0.0391052446076649
-0.00173088392273709,0.039543146764461
0.00583549110427109,0.039925485882464
0.0160640604247575,0.0397521946125359
0.0258022255332875,0.0386621132025217
0.0314069837124695,0.0382943512968178
0.0351552116606733,0.0375376481195621
0.0363113030599641,0.0381422393927376
0.0316175727880593,0.0382189817973784
0.0288854593639805,0.0382679426826228
0.0311975035485974,0.0375112395053673
0.0378531278962577,0.0388659318022496
0.0432126839694615,0.038414825338356
0.0495180195942959,0.0378525927968762
0.0542820848386954,0.0364846961928964
0.0578201395532036,0.0360335897290028
0.05757507606119,0.0355824832651092
0.0617436504767851,0.0362704190964743
0.0662625136152063,0.0365138506174946
0.071096636604171,0.0350903909747217
0.0743194314681357,0.0345559399526385
0.0715873180440569,0.0350771866676243
0.0646517399460651,0.035042802994679
0.057646104103508,0.0340916291816475
0.0468923789267119,0.0322236652285298
0.0332662862227418,0.0328838195404983
0.0190096738176848,0.0320159902856565
0.0053135233691495,0.0308425643174526
-0.00670124120982058,0.031141558877266
-0.0203273339137906,0.0313572088788896
-0.0310460302183042,0.0306560687404271
-0.0348290098108612,0.031232878494206
-0.0369656324061356,0.0316707806510021
-0.0422898823791275,0.0321920273659878
-0.0504514710070107,0.0311575089947667
-0.0564062406810894,0.0299285199877697
-0.0597338449339726,0.0296163211208589
-0.0570715120265296,0.0295263744091205
-0.0518170425701736,0.0282696038827268
-0.0410280112931654,0.0289853212334884
-0.0369294946221354,0.0301733244139914
-0.0352829990108881,0.0307779156871667
-0.0368241307773582,0.0317158851931008
-0.035527923888937,0.03059802226369
-0.0283468664570375,0.0305636385907448
-0.0143351789300294,0.0311404483445237
-0.00112915546552125,0.033050771029337
0.0114463482979,0.0302937984555296
0.0232161879988212,0.0290092464097395
0.0317984003220251,0.0286414845040356
0.0371579563952289,0.0274402770164351
0.0443039849548458,0.0289616584296966
0.055618449316093,0.0312053593472686
0.0612582363675577,0.0318655136592371
0.0582809208375006,0.0309421213656021
0.0541476525221174,0.0317689647939499
0.0507499905246691,0.0332070016490218
0.0479478193560251,0.0326169875881455
0.0457411390161854,0.0318047213720968
0.0425886791247153,0.0318536822573412
0.0350225813256365,0.0306524747697407
0.024829318105362,0.0312292845235195
0.0135151309720441,0.031889438835488
0.00398741632513928,0.0338275430396978
-0.00375382583535252,0.0340431930413215
-0.00837749836269216,0.0340088093683762
-0.0139469504416623,0.0333354507493102
-0.020357095455415,0.0347734876043823
-0.0320916290561242,0.0327110530154887
-0.0401831599394421,0.0293151054955606
-0.0458927275075427,0.0293918479002016
-0.0488700430375997,0.025412488472946
-0.0486597311899394,0.0259059536685351
-0.0494652566384746,0.0248714352973139
-0.049640262385923,0.0241980766782479
-0.0505508744513061,0.0209965997940957
-0.0482738591389718,0.0226846703237366
-0.0392362714760939,0.0239837995818258
-0.0308292035143031,0.022310306264484
-0.0252594742074036,0.0217202922036077
-0.0197247737727866,0.0216303454918694
-0.0184285668843654,0.0211236759891827
-0.019479294438879,0.0218671748593409
-0.0182531452950229,0.0221383878997577
-0.0155908123875799,0.02188175207164
-0.0120177288007892,0.0217640238405051
-0.00742880791780277,0.0200349674843701
-0.00350543560818586,0.0196672055786662
-0.00266460405943858,0.0205773935652036
-0.00399556259221299,0.0209875142026032
-0.00403045285053087,0.0179249449154337
0.000488410287890347,0.0165292667920574
0.00118912634750725,0.0152169332268708
0.000208456537558875,0.0164604994461669
-0.00318920545988942,0.0163149896956354
-0.00872362866657686,0.0155860680377763
-0.0105099625390252,0.0163295669079345
-0.0121211520500605,0.0181287635151616
-0.0145380056235958,0.0182610689585956
-0.0141175205422398,0.0178655255334951
-0.011174956656536,0.0212760502657222
-0.00872279698278873,0.0217417339419149
-0.00655086828730232,0.0217073502689696
-0.00588518109996814,0.0210617731693002
-0.00154146232295998,0.0206940112635963
-0.00140120821986483,0.0208263167070303
-0.00367794630426967,0.0196528907388264
-0.00679537732345719,0.0197296331434674
-0.00791616262253601,0.0192785266795738
-0.0101929007069409,0.0160214867566285
-0.0063045572696066,0.0143757749586832
-0.00108511668553323,0.0145914249603068
0.00420438164310542,0.0141403184964132
0.0112102947135918,0.0125501697372611
0.0151686958954913,0.00982097868285023
0.0169202781235864,0.0124814023913704
0.0184266582457033,0.0137249686106665
0.0235059833406462,0.0120236937739281
0.0326486576203718,0.00918337664193115
0.0390941087343364,0.00998243855088242
0.0437881162341706,0.0105870298240578
0.0450142653780266,0.0124695709894747
0.0425273540599261,0.0115739602152362
0.039199749807043,0.0107616939991875
0.0403208123340512,0.0116163189469319
0.0448046466001899,0.0103039853817452
0.0463460555945894,0.00757479432733435
0.0473970603770324,0.00784600736775114
0.0572753409746927,0.00850616167971971
0.066698246232679,0.00833287040979168
0.0696408101183829,0.00688162924762226
0.0673290431616954,0.00662499341950456
0.0649121895881601,0.00803524875517993
0.0553494460689726,0.00850093243137255
0.0497099362454374,0.00804982596747898
0.0485891509463585,0.00940451826436129
0.0464174994788015,0.00898119331986421
0.0423893177802662,0.00803001950683273
0.036749807956731,0.0099681237110426
0.0278876418831957,0.0113228160079249
0.0210921792743343,0.0102327345979107
0.0148922074942773,0.0106706367547068
0.0112143145185681,0.0129699007110719
0.00193180197764151,0.0134633659066611
-0.0072456239464373,0.0112064606819916
-0.019120273036277,0.0110887324508567
-0.0301542291913341,0.0111932563748942
-0.0437803218953043,0.0126035117105695
-0.0567758948981874,0.0138192964104691
-0.0664086961619401,0.01389603881511
-0.0755160643414537,0.00997224242664744
-0.0906483985535759,0.011743657514478
-0.103153567344502,0.0127927530979982
-0.10854787506206,0.0129250585414323
-0.109108198404617,0.0125850781551249
-0.107847020388478,0.0137175182968349
-0.105499947331578,0.0138498237402689
-0.106550674886092,0.0117873891513752
-0.110789029818323,0.0111140305323092
-0.119686224764141,0.0140522694347949
-0.124940416992567,0.015851466042022
-0.123013690403059,0.0152614519811457
-0.113660842889638,0.0148659085560453
-0.108336315688717,0.0165817606050828
-0.106129358120948,0.0157972759084305
-0.105498699805896,0.0151239172893646
-0.101610356368562,0.0169786769353848
-0.0962508002953581,0.017222108456405
-0.0891047717357412,0.0160209009688046
-0.0844808219804722,0.0150141641169799
-0.080312247564877,0.0145074946142932
-0.076038586532434,0.0145286739801411
-0.0710993769266215,0.0168557194559027
-0.0680166975517872,0.0172102770545091
-0.0616413041823877,0.0165369184354432
-0.05179805245701,0.0170581651504289
-0.0398180395223931,0.0170237814774837
-0.0306403363703849,0.014350153461866
-0.0218129219412028,0.0140657361143517
-0.012880420895173,0.0182541433896823
-0.007625951438817,0.0172196250184612
-0.00689020650691748,0.0168518631127572
0.00151686145487327,0.0173453283083464
0.0127262391992728,0.0178387935039356
0.0220090289681288,0.017137653365473
0.0236555245793761,0.0183534380653726
0.0191719675411669,0.0202081977113928
0.0126567359105664,0.0211183856979304
0.00792797676637887,0.0200560858073127
0.00841851959230009,0.0196049793434191
0.00827854271713442,0.0202373521359911
0.0110809911137078,0.020564128215201
0.0140235549994117,0.0184739121069109
0.0214498145372894,0.0193841000934484
0.0308026620507105,0.0216833640498135
0.0422222130288057,0.0206488456785924
0.0533965619009226,0.0204477728892678
0.0616284855013003,0.0200522294641673
0.0653767134495041,0.0204345685821703
0.0653768520634689,0.0212058489717251
0.0681793004600422,0.0207547425078315
0.0679342369680286,0.019748005656007
0.0615941496988412,0.0202692523709927
0.0609987974840015,0.0206238099695991
0.06709395987514,0.0205060817384641
0.0709472744401917,0.0212217990892257
0.070176777863939,0.0226042729055046
0.067374606695295,0.0230143935429041
0.0679352072657815,0.0210908665509933
0.0746608893580071,0.0197229699470136
0.0828577840861022,0.0192996450025166
0.0903891302408278,0.0192930428489679
0.0953283398466403,0.0176751125704192
0.0971499798193006,0.018251922324198
0.0934720868435914,0.0171896224335803
0.0888484143162518,0.0182664995364971
0.080826941177499,0.0185654940963104
0.0701783026175507,0.0170864714147444
0.0590742887179285,0.0164686758344715
0.0493013719650453,0.0166287627973021
0.040264061530097,0.0175667323032361
0.0315770398179747,0.018199105095808
0.0236256244237872,0.0170534606470007
0.0184414899399258,0.0166301357025036
0.019387408105521,0.016734659626541
0.0262882345591596,0.0158390488523026
0.0235561211350808,0.0163047325284953
0.0151143015289368,0.0163536934137396
0.0050261249255102,0.0159025869498461
-0.00215465527845984,0.0148680685786249
-0.00775913622971258,0.0149725925026623
-0.0117873179282478,0.0155216207370446
-0.0177420876023267,0.0150982957925477
-0.024817781189449,0.0139804328631369
-0.0321036480102669,0.014418335019933
-0.0361668585810847,0.0146062035021601
-0.0326988616111418,0.0137661557667148
-0.024922313350438,0.0138428981713557
-0.0176011404294081,0.0148364307160829
-0.0117161512719651,0.0150520807177065
-0.00670688392158731,0.0148232264089853
-0.00278351161197046,0.0147054981778504
0.00366193950199424,0.0150878372958533
0.00909155331976329,0.0155813024914426
0.0130849833739454,0.0130465820728077
0.0184095105748666,0.0124287864925348
0.0170435231698095,0.0135890081536412
0.0101780028163829,0.0136935320776787
1.97684683911235e-05,0.0124367615512851
-0.0117497940046007,0.0106799236757537
-0.0250255979857447,0.0105621954446188
-0.0421545779179756,0.0116668540669321
-0.0637672535023805,0.0119380671073488
-0.0856251311927635,0.0125148768611277
-0.106221969480973,0.0139529137161996
-0.123385978285486,0.013751840926875
-0.135645944970435,0.0131618268659987
-0.146224525785818,0.0127662834408982
-0.160761369169136,0.0134820007916599
-0.181568380691041,0.0130864573665594
-0.204126835827076,0.0127742584996486
-0.223532692457676,0.0136566649667895
-0.240276354794799,0.0150391387830684
-0.25271146584116,0.0135601161015024
-0.263360104401108,0.0119144043035571
-0.277301456955622,0.0101297849086291
-0.292994253124266,0.0107343761818044
-0.308616991548345,0.0135337074873074
-0.324449903206119,0.0131103825428104
-0.334432993192698,0.0124092424043479
-0.339932387527103,0.0134305564684715
-0.345116522010964,0.0133683912761297
-0.343890372867108,0.0121671837885292
-0.337585037242274,0.0125217413871356
-0.327286410177222,0.0130152065827248
-0.312363971970866,0.0125918816382278
-0.295935292256358,0.0114184556700239
-0.283604990598915,0.0104117188181994
-0.274112027596363,0.0104606797034437
-0.266580681441638,0.0105652036274811
-0.258804133180934,0.0108086351485014
-0.249766545518056,0.0113021003440906
-0.236525493181265,0.010850993880197
-0.224650566863496,0.0105110134938897
-0.214702228521271,0.012671369853272
-0.205559554241545,0.0133037426458439
-0.194700465219972,0.0124914764297952
-0.182370163562529,0.0120681514852981
-0.167973158440412,0.0135061883403701
-0.154907250465034,0.0118326950230282
-0.149897983114656,0.00952022675956571
-0.14597461080504,0.00915246485386183
-0.142366498345966,0.0102849049955717
-0.140474800628741,0.0111950929821092
-0.135570619895211,0.0129109450311467
-0.127058465316572,0.0137377884594945
-0.119246888183586,0.0113697571572389
-0.111960744134838,0.0106130539799833
-0.108352631675765,0.0109953930979863
-0.105725327640605,0.010961009425041
-0.0985792990809877,0.0101209616895957
-0.0915733860105013,0.0100032334584608
-0.0862838876818628,0.0110801105613775
-0.0812045625869198,0.0103234073841219
-0.075214486812629,0.0096222672456594
-0.0677181695301861,0.00978235420849
-0.0591709860792649,0.0109147943501998
-0.0539515454951914,0.0101580911729442
-0.0471558056584006,0.00826234570042999
-0.0444234150063925,0.00636660022791567
-0.0457543735391669,0.00460976235238417
-0.046314696881724,0.00432534500486994
-0.0423562956998245,0.00273519624571772
-0.0285898102787946,-0.00168866749188276
-0.0152086424528735,-0.00175083268422457
-0.000776608458474034,-0.000868426217083614
0.0103977404136428,-0.00173625547192543
0.0208715118401075,-0.00368756398323281
0.0276322228046157,-0.00430535956350569
0.0313804507528195,-0.00458977691101996
0.0321161956847189,-0.00581876591801701
0.0346033842307488,-0.00840904937544509
0.03670525518167,-0.007971147218649
0.0342533727358521,-0.00820000152737016
0.0319766346514472,-0.0105402513102292
0.0308208204800858,-0.0126026858991228
0.0296299774364417,-0.0128871032466371
0.0286493076264933,-0.0128659238807892
0.0301206588763276,-0.0138170976938208
0.034534435397901,-0.0149349606232315
0.0403493668107787,-0.0163584202660044
0.0409099673812651,-0.0177540983893808
0.0364614392153385,-0.0178996081399123
0.0328536039841945,-0.0190730341081163
0.0274592962666374,-0.0178850309276133
0.0207338914023413,-0.0186417341048689
0.0118016675842407,-0.017203697249797
0.00381522331777074,-0.0161268201468802
-0.00781422366609065,-0.0165501450913772
-0.0156955813157129,-0.0160844614151845
-0.0228063037751178,-0.0163133157239057
-0.0276751784084357,-0.0159865396446957
-0.0302321474711015,-0.0166598982637617
-0.0285856518598541,-0.0168887525724829
-0.0262385788029546,-0.0170064808036179
-0.0221400621319247,-0.0171797720735459
-0.0115261752163296,-0.017964256770198
-0.00504569523008227,-0.0169985057448674
0.000243803098556358,-0.0150048385018645
0.00136486562556457,-0.0150392221748097
0.000489282432464087,-0.0151013873671515
-0.00287335069270168,-0.0154691492728554
-0.00714673449721524,-0.0158924742173524
-0.00966867468759836,-0.0161213285260736
-0.00952842058450314,-0.0160445861214326
-0.00521973067977757,-0.0156066839646366
-0.000946069647334671,-0.0146964959780991
0.00105071468673879,-0.0150086948450099
0.00493905812407302,-0.0144041035718346
0.0111393071320596,-0.0130216297555557
0.0176548159905894,-0.01330604710307
0.0235047762757498,-0.0136182459699808
0.0272880330962363,-0.0131525622937881
0.0285492111123749,-0.0160762239839748
0.0292849560442744,-0.0157216663853683
0.0324727220359565,-0.0154504533449515
0.0331033803510081,-0.0155681815760865
0.0338040964106251,-0.0148246827059283
0.0335940617908942,-0.0162481423487012
0.0277794076059459,-0.0162547445022499
0.0353808115052366,-0.0164002542527814
0.0487269504588752,-0.0134897968696922
0.0652256879179486,-0.0136075251008272
0.0810238479313698,-0.0140864130841173
0.0965067480942475,-0.0134262587721489
0.111183984194625,-0.0131272642123355
0.126316595634677,-0.0141617825835567
0.140048052183424,-0.0162797802112433
0.150696967971302,-0.0152862476665162
0.161100681653201,-0.0149872531067029
0.175812946625862,-0.0148549476632689
0.18982463415287,-0.0149726758944039
0.203065686489661,-0.0158960681880388
0.213784660022104,-0.0138190563868462
0.222331843473025,-0.0127143977645328
0.231369431135903,-0.0145545801982541
0.242929097603128,-0.0153668464143028
0.25564471685568,-0.0153456670484549
0.267729816407145,-0.0147688572946761
0.279779887086327,-0.0146921148900351
0.290814120469313,-0.0138374899422907
0.299466390537082,-0.0118160411798912
0.309905133091264,-0.0104335673636124
0.306927817561207,-0.0108291107887129
0.297610276147998,-0.009696670647003
0.289168456541854,-0.0100644325527069
0.282898427017232,-0.0106544466135832
0.277083772832283,-0.010716611805925
0.268992241948965,-0.00975086078059439
0.260060018130865,-0.009951933569919
0.250041899272004,-0.0109586704217436
0.241985397260968,-0.0116598105602061
0.231932249529824,-0.010666278015479
0.222474592627485,-0.00986721610652775
0.213472311064819,-0.0093737509109386
0.204119740779327,-0.00929700850629769
0.194872257110683,-0.00888688786889815
0.188847429692039,-0.00730994341684349
0.183418093102199,-0.00637197391090946
0.177428294555838,-0.00732314772394094
0.171263351648064,-0.00649630429559313
0.163977484827246,-0.0056138978284522
0.156516473645015,-0.00742629874277684
0.150176386375827,-0.00771071609029111
0.146218262421857,-0.00735615849168459
0.141594589894518,-0.00630706290816435
0.139738198277504,-0.0063970096199028
0.135254641239295,-0.00668142696741703
0.130525882095107,-0.00613239873303481
0.126007296184615,-0.0060834378477905
0.119842353276841,-0.0067290149474599
0.114167814581023,-0.00551323024756031
0.108878593480314,-0.00457526074162627
0.10607642231167,-0.00633209861715781
0.107057369349547,-0.0053385660724307
0.103344447501556,-0.00417834441132429
0.0953580032350856,-0.00285143363383861
0.0881071652865503,-0.003997078082646
0.0819772512510585,-0.00450374758533267
0.0771784343623057,-0.00459369429707105
0.0719242421338791,-0.00401688454329221
0.0703480814951265,-0.00416239429382372
0.0716092595112651,-0.00511356810685518
0.0730455818888168,-0.00570358216773152
0.073991500054412,-0.00423776379326295
0.0743769562634854,-0.0031886682097427
0.0758833363856022,-0.00530666583742932
0.0752179264261973,-0.00570220926252975
0.0738169101488577,-0.00495871039237161
0.0733967022954312,-0.00474306039074793
0.0717504839121132,-0.00466631798610704
0.0649900501755344,-0.00428397886810397
0.0550770179335209,-0.00509624508415268
0.0446735814795508,-0.00457499836916701
0.0368973104467764,-0.00499832331366406
0.030101847837915,-0.00433816900169553
0.0233063852290536,-0.00440033419403739
0.0130430642642139,-0.00454584394456889
0.00989060437274384,-0.0048302612920831
0.00663305786442595,-0.00525358623658013
