0.137621030963608,-0.0741977138214125
0.148094663776103,-0.0766147060089186
0.214964780963602,-0.0862826747589198
0.0312733747136012,-0.0774203700714205
-0.0839365862238982,-0.074197713821419
-0.013038148723898,-0.0790316981964186
-0.0154551409113992,-0.0806430263214209
-0.0186777971613977,-0.0766147060089197
-0.0243174455988976,-0.0814486903839196
-0.0372080705988977,-0.0846713466339192
-0.0654063127863976,-0.0846713466339191
-0.0605723284113983,-0.0822543544464191
-0.0541270159113992,-0.0822543544464207
-0.0331797502863988,-0.0846713466339196
-0.0194834612238984,-0.0613070888214198
-0.00981549247389886,-0.0774203700714201
-0.0138438127863976,-0.0766147060089185
-0.0355967424738988,-0.0886996669464201
0.00952044502610126,-0.08708833882142
0.061888609088603,-0.0886996669464197
0.0691395856511029,-0.0766147060089185
0.108617124713601,-0.0838656825714211
0.119090757526102,-0.0766147060089189
0.140843687213603,-0.0741977138214195
0.126341734088601,-0.0846713466339198
0.123924741901101,-0.0854770106964197
0.146483335651101,-0.0758090419464197
0.160985288776101,-0.0766147060089204
0.0965321637761018,-0.0766147060089198
-0.0138438127863978,-0.0758090419464204
-0.0637949846613992,-0.0741977138214206
-0.0863535784113983,-0.0758090419464197
-0.0710459612238983,-0.0621127528839195
0.0538319684636015,-0.08789400288392
0.0707509137761021,-0.0709750575714195
-0.0291514299738972,-0.0798373622589189
0.000658140338602161,-0.0741977138214191
0.0747792340886019,-0.0903109950714201
0.0788075544011024,-0.0814486903839195
0.0900868512761022,-0.087088338821419
0.133592710651101,-0.0766147060089189
0.0699452497136025,-0.0766147060089188
0.0312733747136011,-0.08144869038392
0.0820302106511016,-0.103201620071419
0.044163999713602,-0.0806430263214191
0.043358335651101,-0.0766147060089204
0.116673765338602,-0.0766147060089196
0.0691395856511014,-0.0846713466339194
0.079613218463601,-0.0798373622589204
0.0256337262761013,-0.0790316981964196
0.044163999713601,-0.08225435444642
0.0796132184636009,-0.0766147060089199
-0.00578717216139879,-0.0645297450714196
0.0771962262761015,-0.0210238856964192
0.109422788776101,-0.102395956008921
0.139232359088602,-0.0766147060089192
0.108617124713602,-0.07580904194642
0.0683339215886024,-0.0645297450714191
0.0659169294011014,-0.0709750575714205
0.0586659528386029,-0.0621127528839186
-0.0194834612238993,-0.0758090419464204
-0.00820416434889837,-0.0766147060089194
0.0900868512761012,-0.0725863856964196
0.102171812213602,-0.0766147060089199
-0.0122324846613984,-0.0766147060089195
-0.125025453411398,-0.0709750575714192
-0.137110414348899,-0.0838656825714203
-0.112134828411398,-0.0895053310089197
-0.100049867473899,-0.0838656825714203
-0.0863535784113978,-0.0709750575714204
-0.0726572893488983,-0.0790316981964188
-0.0887705705988977,-0.0870883388214197
-0.091187562786398,-0.0766147060089196
-0.0871592424738979,-0.0750033778839184
-0.0742686174738987,-0.0790316981964197
-0.0726572893488983,-0.0766147060089203
-0.0742686174738979,-0.0766147060089187
-0.0452647112238983,-0.0774203700714188
-0.042042054973897,-0.0806430263214186
-0.0863535784113987,-0.0653354091339198
-0.0911875627863971,-0.0717807216339185
-0.0847422502863989,-0.0741977138214202
-0.059766664348897,-0.081448690383919
-0.033985414348898,-0.0854770106964197
-0.0355967424738985,-0.0854770106964199
-0.0484873674738978,-0.0766147060089193
-0.0452647112238992,-0.0798373622589195
-0.0597666643488987,-0.0895053310089191
-0.0517100237238982,-0.0854770106964193
-0.0355967424738992,-0.0814486903839205
-0.0412363909113995,-0.0878940028839201
-0.0476817034113986,-0.0766147060089199
-0.032374086223898,-0.0782260341339198
-0.0484873674738985,-0.0822543544464195
-0.0654063127863981,-0.0774203700714192
-0.0710459612238978,-0.0693637294464194
-0.0646006487238985,-0.0766147060089207
-0.0210947893488993,-0.0701693935089204
0.0304677106511012,-0.0895053310089199
0.051414976276101,-0.074197713821419
0.0634999372136013,-0.0766147060089199
0.0304677106511015,-0.0766147060089191
-0.0299570940363988,-0.0806430263214203
-0.0436533830988988,-0.0758090419464201
0.0771962262761017,-0.0806430263214196
0.152122984088602,-0.0814486903839209
0.150511655963602,-0.0685580653839196
0.0949208356511006,-0.0725863856964212
0.023216734088601,-0.0774203700714206
-0.0468760393488978,-0.0870883388214187
-0.0283457659113987,-0.0741977138214201
-0.0315684221613977,-0.0870883388214192
-0.023511781536398,-0.0782260341339194
-0.0162608049738987,-0.0838656825714195
-0.0323740862238979,-0.0838656825714198
-0.0364024065363987,-0.0806430263214197
-0.0202891252863981,-0.0693637294464196
0.00307513252610142,-0.0838656825714199
0.113451109088602,-0.0766147060089179
0.0763905622136013,-0.07822603413392
0.0143544294011009,-0.0886996669464201
0.0409413434636011,-0.0878940028839206
0.0957264997136023,-0.0774203700714191
0.141649351276101,-0.0766147060089196
0.116673765338602,-0.0790316981964189
0.0191884137761014,-0.10642427632142
-0.0388193987238977,-0.0806430263214195
-0.0323740862238988,-0.0846713466339198
0.00468646065110158,-0.08225435444642
0.0344960309636016,-0.0596957606964192
0.106200132526102,-0.0822543544464201
0.165013609088602,-0.0903109950714195
0.148094663776102,-0.0878940028839197
0.0812245465886023,-0.070975057571419
0.120702085651102,-0.0790316981964196
0.162596616901102,-0.0870883388214196
0.160985288776101,-0.0975619716339203
0.172264585651102,-0.0895053310089198
0.186766538776102,-0.090310995071419
0.102977476276102,-0.0766147060089198
0.128758726276102,-0.0862826747589197
0.1287587262761,-0.0782260341339204
0.148094663776101,-0.0878940028839199
0.136009702838601,-0.09031099507142
0.0707509137761015,-0.0911166591339196
0.119896421588601,-0.0951449794464205
0.0739735700261022,-0.0895053310089186
0.0699452497136001,-0.0895053310089206
0.0949208356511013,-0.08950533100892
-0.00981549247389807,-0.0822543544464204
-0.0476817034113987,-0.0846713466339186
-0.0903818987238986,-0.0878940028839204
-0.0855479143488969,-0.0870883388214199
-0.0984385393488982,-0.10964693257142
-0.126636781536398,-0.0967563075714189
-0.165308656536398,-0.0919223231964194
-0.142750062786398,-0.0870883388214186
-0.111329164348898,-0.0870883388214205
-0.0831309221613988,-0.0806430263214206
-0.0831309221613985,-0.0774203700714196
-0.0718516252863979,-0.0886996669464185
0.019188413776102,-0.0741977138214192
0.0747792340886009,-0.0870883388214203
-0.0267344377863984,-0.053250448196418
-0.0807139299738977,-0.107229940383918
-0.105689515911398,-0.0895053310089199
-0.0750742815363982,-0.0967563075714201
-0.0339854143488978,-0.10964693257142
-0.0517100237238999,-0.0903109950714196
-0.112134828411398,-0.0927279872589192
-0.125831117473897,-0.089505331008919
-0.128248109661399,-0.0870883388214194
-0.124219789348898,-0.0951449794464199
-0.103272523723898,-0.0766147060089207
-0.086353578411398,-0.0822543544464195
-0.0839365862238987,-0.0935336513214198
-0.104078187786399,-0.0846713466339189
-0.0646006487238993,-0.0895053310089201
-0.0742686174738985,-0.0951449794464203
-0.0380137346613981,-0.0895053310089203
-0.0202891252863991,-0.0935336513214202
-0.0210947893488982,-0.0854770106964196
-0.0219004534113984,-0.0895053310089195
-0.0162608049738989,-0.10320162007142
-0.0670176409113978,-0.0846713466339188
-0.0484873674738988,-0.0854770106964204
-0.00820416434889852,-0.102395956008919
-0.0073985002863975,-0.0870883388214192
-0.0170664690363985,-0.0903109950714197
-0.0186777971613994,-0.0935336513214204
-0.0380137346613982,-0.089505331008919
0.018382749713602,-0.0943393153839194
0.00871478096360102,-0.0983676356964203
-0.0154551409113985,-0.0975619716339198
0.0038807965886004,-0.0838656825714209
0.0651112653386005,-0.10642427632142
0.105394468463602,-0.0951449794464199
0.118285093463602,-0.11689790913392
0.105394468463601,-0.08950533100892
0.0941151715886015,-0.0886996669464203
0.0433583356511022,-0.10239595600892
0.0385243512761018,-0.0895053310089201
0.0949208356511026,-0.0967563075714192
0.110228452838602,-0.0967563075714192
0.0304677106511016,-0.0919223231964208
0.100560484088601,-0.0798373622589202
0.120702085651102,-0.126565877883919
0.0804188825261017,-0.0895053310089195
0.0167714215886016,-0.0806430263214202
0.0602772809636005,-0.0895053310089196
0.0836415387761018,-0.0903109950714201
0.0457753278386019,-0.0838656825714199
0.0175770856511021,-0.0886996669464201
0.00629778877610191,-0.0943393153839192
-0.0388193987238991,-0.0999789638214202
-0.00578717216139912,-0.0878940028839203
-0.0396250627863988,-0.088699666946421
0.00629778877610173,-0.0766147060089194
0.133592710651103,-0.0967563075714185
0.194017515338602,-0.0999789638214195
0.146483335651102,-0.0903109950714205
0.086864195026101,-0.0967563075714205
0.0167714215886021,-0.092727987258919
0.0876698590886011,-0.0999789638214195
0.0433583356511021,-0.0935336513214196
0.0312733747136009,-0.09031099507142
0.0691395856511015,-0.0999789638214205
0.0820302106511014,-0.0886996669464201
0.0860585309636026,-0.0919223231964199
0.0747792340886009,-0.10722994038392
0.0780018903386015,-0.0766147060089202
0.0296620465886018,-0.0741977138214197
-0.0573496721613985,-0.0838656825714193
-0.0799082659113987,-0.0903109950714201
-0.0549326799738987,-0.0895053310089196
-0.0831309221613984,-0.0814486903839187
-0.0839365862238978,-0.0895053310089184
-0.0597666643488983,-0.107229940383919
-0.0492930315363994,-0.0895053310089203
-0.0380137346613986,-0.0975619716339199
-0.0476817034113986,-0.0935336513214196
-0.079908265911399,-0.0919223231964207
-0.100049867473899,-0.0895053310089203
-0.034791078411397,-0.0967563075714192
0.0135487653386024,-0.0967563075714192
-0.0267344377863979,-0.0870883388214189
-0.0380137346613986,-0.0951449794464203
-0.0388193987238989,-0.10078462788392
-0.0517100237238977,-0.0991732997589198
-0.0613779924738982,-0.0927279872589195
0.0175770856511013,-0.0951449794464204
0.0691395856511025,-0.0895053310089196
0.113451109088603,-0.095950643508919
0.1327870465886,-0.089505331008921
0.109422788776101,-0.10239595600892
0.0481923200261016,-0.0886996669464206
0.000658140338602012,-0.102395956008919
0.0304677106511018,-0.0975619716339203
0.0828358747136014,-0.10239595600892
0.108617124713602,-0.0935336513214194
0.119896421588602,-0.10239595600892
0.061082945026102,-0.0854770106964202
0.0353016950261026,-0.10320162007142
-0.0267344377863993,-0.10078462788392
-0.0299570940363983,-0.0621127528839191
-0.0138438127863982,-0.0895053310089191
0.0127431012761016,-0.0935336513214188
0.0183827497136012,-0.0895053310089194
0.0788075544011017,-0.0951449794464193
0.118285093463601,-0.102395956008919
0.108617124713603,-0.0903109950714191
0.0272450544011017,-0.0878940028839201
-0.0452647112238981,-0.11770357319642
-0.0654063127863974,-0.0895053310089187
-0.0782969377863981,-0.0814486903839199
-0.0895762346613976,-0.0806430263214194
-0.0557383440363975,-0.0895053310089189
0.0119374372136018,-0.0935336513214188
0.120702085651102,-0.0895053310089197
0.158568296588601,-0.0846713466339198
0.105394468463602,-0.0886996669464191
0.00388079658860154,-0.0903109950714187
-0.0420420549738995,-0.0854770106964202
-0.0847422502863995,-0.0895053310089201
-0.0468760393488981,-0.0766147060089197
-0.0436533830988981,-0.0838656825714188
-0.0396250627863982,-0.0903109950714191
-0.0364024065363978,-0.085477010696418
-0.0476817034113979,-0.0846713466339193
-0.0235117815363983,-0.096756307571419
-0.0517100237238991,-0.0870883388214197
-0.057349672161398,-0.0782260341339204
-0.0347910784113983,-0.0806430263214186
-0.0605723284113995,-0.0919223231964209
-0.0460703752863988,-0.0975619716339196
-0.0670176409113969,-0.0870883388214194
-0.070240297161398,-0.0975619716339201
-0.0589610002863987,-0.0854770106964199
-0.0557383440363984,-0.0766147060089199
-0.00820416434889953,-0.0806430263214202
-0.00820416434889842,-0.0895053310089194
-0.0339854143488976,-0.08547701069642
-0.0162608049738983,-0.0943393153839197
0.00629778877610228,-0.0911166591339195
0.00226946846360206,-0.0661410731964184
0.0868641950261009,-0.0919223231964211
0.0804188825261011,-0.0862826747589199
0.0876698590886024,-0.0903109950714192
0.145677671588603,-0.0758090419464196
0.196434507526102,-0.0782260341339192
0.198045835651102,-0.0846713466339191
0.219798765338602,-0.089505331008919
0.223827085651103,-0.084671346633918
0.177904234088602,-0.0766147060089193
0.138426695026101,-0.0766147060089194
0.142455015338601,-0.0717807216339204
0.148900327838602,-0.0766147060089201
0.160179624713602,-0.075809041946419
0.174681577838602,-0.0878940028839202
0.115062437213602,-0.0903109950714203
0.087669859088603,-0.0895053310089188
-0.0122324846613988,-0.0854770106964207
-0.0670176409113977,-0.0766147060089185
-0.0452647112238974,-0.0790316981964194
-0.0492930315363988,-0.08467134663392
-0.0581553362238975,-0.0903109950714189
-0.089576234661398,-0.0838656825714193
-0.0541270159113985,-0.10078462788392
0.0489979840886028,-0.079837362258919
0.121507749713601,-0.089505331008919
0.107811460651102,-0.0870883388214205
0.127953062213603,-0.0790316981964192
0.0643056012761017,-0.0838656825714197
-0.0670176409113987,-0.0886996669464204
-0.0855479143488976,-0.0846713466339194
-0.0339854143488987,-0.0983676356964194
0.0771962262761014,-0.0903109950714199
0.118285093463602,-0.0774203700714194
0.0522206403386018,-0.102395956008919
0.00307513252610188,-0.0983676356964199
0.0828358747136028,-0.0798373622589186
0.126341734088601,-0.07661470600892
0.0780018903386021,-0.0846713466339194
0.00146380440110171,-0.0895053310089198
-0.0460703752863979,-0.0645297450714197
-0.00900982841139786,-0.0822543544464187
0.0167714215886013,-0.08869966694642
0.0763905622136011,-0.0878940028839197
0.148094663776101,-0.0870883388214198
0.0602772809636011,-0.0838656825714197
-0.0484873674738988,-0.0790316981964199
-0.152418031536398,-0.0725863856964198
-0.125831117473898,-0.081448690383919
-0.113746156536398,-0.0685580653839191
-0.0766856096613987,-0.0806430263214198
-0.123414125286398,-0.0806430263214187
-0.116968812786399,-0.0838656825714201
-0.0911875627863988,-0.0838656825714202
-0.0750742815363991,-0.0870883388214204
-0.0782969377863993,-0.0903109950714205
-0.105689515911399,-0.0766147060089206
-0.0911875627863986,-0.0645297450714203
-0.0460703752863987,-0.0862826747589204
-0.0339854143488995,-0.0854770106964203
-0.0154551409113987,-0.0870883388214197
-0.0186777971613988,-0.0838656825714203
-0.013843812786399,-0.0806430263214203
-0.0210947893488991,-0.088699666946419
-0.00981549247389855,-0.09917329975892
0.0232167340886013,-0.0741977138214205
0.00952044502610201,-0.08708833882142
0.0103261090886018,-0.0862826747589195
-0.00900982841139888,-0.0854770106964202
-0.0210947893488991,-0.0919223231964199
-0.00900982841139741,-0.0814486903839188
0.00952044502610121,-0.08708833882142
0.0264393903386019,-0.10239595600892
0.0433583356511018,-0.0903109950714197
0.066722593463601,-0.0846713466339199
0.0796132184636021,-0.0911166591339191
0.149705991901101,-0.0878940028839195
0.1456776715886,-0.0895053310089202
0.103783140338602,-0.0798373622589202
0.1102284528386,-0.0967563075714197
0.121507749713601,-0.0822543544464205
0.1166737653386,-0.0766147060089199
0.0828358747136014,-0.0878940028839195
0.0683339215886014,-0.0911166591339207
0.0506093122136009,-0.0903109950714208
0.0634999372136023,-0.114480916946419
0.118285093463601,-0.0975619716339202
0.181126890338602,-0.0919223231964197
0.163402280963601,-0.0806430263214191
0.171458921588602,-0.0798373622589203
0.172264585651102,-0.078226034133919
0.176292905963601,-0.0919223231964195
0.174681577838601,-0.0903109950714195
0.120702085651101,-0.0878940028839198
0.0546376325261012,-0.0846713466339204
0.0731679059636017,-0.0903109950714194
0.0876698590886012,-0.0935336513214202
0.0610829450261022,-0.0999789638214195
0.0554432965886014,-0.0838656825714199
0.0280507184636018,-0.092727987258919
0.0030751325261021,-0.0854770106964197
0.0256337262761021,-0.0838656825714202
0.0578602887761017,-0.094339315383919
0.0747792340886024,-0.0886996669464182
0.0844472028386016,-0.0870883388214203
0.0473866559636023,-0.0927279872589186
0.0457753278386012,-0.0951449794464198
-0.00337017997389904,-0.0782260341339197
0.00065814033860192,-0.0870883388214197
0.0409413434636016,-0.0919223231964197
-0.0855479143488985,-0.0878940028839197
-0.137110414348899,-0.0943393153839196
-0.139527406536399,-0.10803560444642
-0.137916078411398,-0.07822603413392
-0.150001039348899,-0.0846713466339197
-0.188672914348899,-0.0862826747589195
-0.189478578411399,-0.0870883388214193
-0.189478578411399,-0.0886996669464195
-0.177393617473898,-0.107229940383919
-0.162891664348897,-0.0911166591339187
-0.166919984661398,-0.0725863856964198
-0.159669008098899,-0.0806430263214196
-0.118580140911398,-0.0846713466339193
-0.101661195598898,-0.0782260341339194
-0.0766856096613989,-0.0790316981964203
-0.0799082659113987,-0.0911166591339189
-0.0468760393488991,-0.0895053310089191
-0.00578717216139785,-0.0895053310089196
0.000658140338601021,-0.0854770106964198
-0.0347910784113966,-0.0838656825714191
-0.0597666643488981,-0.0854770106964194
-0.0484873674738981,-0.0758090419464188
-0.0267344377863974,-0.0846713466339186
-0.0194834612238983,-0.0895053310089199
0.121507749713601,-0.0870883388214186
0.0949208356511016,-0.0814486903839198
0.0610829450261014,-0.0766147060089191
0.0715565778386031,-0.0733920497589191
0.100560484088601,-0.0886996669464203
0.0530263044011008,-0.0605014247589198
0.0103261090886028,-0.0919223231964196
0.00468646065110128,-0.0806430263214194
0.00710345283860167,-0.0878940028839199
0.00307513252610135,-0.0774203700714202
0.00307513252610151,-0.0782260341339201
0.0747792340886014,-0.0725863856964205
0.0933095075261003,-0.0725863856964206
0.106200132526102,-0.08708833882142
0.0667225934636017,-0.0621127528839201
0.0288563825261019,-0.0741977138214194
0.0143544294011011,-0.0790316981964201
0.0256337262761012,-0.0774203700714198
0.0836415387761023,-0.0830600185089198
0.0828358747136015,-0.0806430263214192
0.112645445026101,-0.0846713466339193
0.125536070026101,-0.0766147060089202
0.0949208356511016,-0.0741977138214203
0.0336903669011016,-0.0886996669464197
-0.0162608049738978,-0.0766147060089194
-0.0686289690363987,-0.0758090419464204
-0.0517100237238985,-0.0733920497589201
-0.0178721330988987,-0.0766147060089195
-0.0194834612238996,-0.075809041946421
-0.0299570940363977,-0.084671346633918
0.00226946846360099,-0.0774203700714196
0.0409413434636018,-0.0725863856964193
0.104588804401102,-0.076614706008919
0.170653257526102,-0.0661410731964198
0.208519468463602,-0.075809041946419
0.188377866901101,-0.0790316981964195
0.0739735700261011,-0.0758090419464197
-0.0082041643488982,-0.0693637294464191
-0.0219004534113992,-0.0717807216339209
-0.0621836565363981,-0.0846713466339198
-0.0702402971613985,-0.0814486903839199
-0.0468760393488978,-0.0806430263214194
-0.0597666643488991,-0.0806430263214203
-0.0597666643488979,-0.0766147060089196
-0.0509043596613986,-0.0709750575714197
-0.0347910784113979,-0.0741977138214197
-0.0339854143488984,-0.0750033778839202
-0.0509043596613973,-0.0774203700714192
-0.0726572893488985,-0.0725863856964191
-0.0283457659113989,-0.0806430263214202
0.00307513252610238,-0.065335409133919
0.00629778877610075,-0.0548617763214213
0.00710345283860196,-0.0621127528839194
0.048997984088601,-0.0766147060089192
0.0908925153386017,-0.0774203700714198
0.174681577838601,-0.0758090419464206
0.227855405963602,-0.0750033778839197
0.264110288776102,-0.0758090419464201
0.287474546588603,-0.10159029194642
0.299559507526102,-0.0766147060089199
0.305199155963601,-0.0709750575714195
0.263304624713602,-0.045999471633919
0.270555601276101,-0.07903169819642
0.163402280963602,-0.0733920497589202
0.0651112653386021,-0.0750033778839201
0.0304677106511018,-0.0758090419464201
0.0175770856511019,-0.0806430263214189
-0.0227061174738984,-0.102395956008919
-0.0162608049738991,-0.076614706008921
0.0296620465886014,-0.0725863856964199
0.0602772809636009,-0.0613070888214204
0.0481923200261012,-0.0790316981964206
0.0288563825261009,-0.0733920497589203
-0.0380137346613976,-0.076614706008918
0.0207997419011018,-0.0725863856964193
0.068333921588601,-0.0774203700714193
0.0554432965886019,-0.082254354446421
0.0634999372136019,-0.0854770106964191
0.0353016950261017,-0.0766147060089197
0.0546376325261017,-0.0782260341339199
0.064305601276101,-0.0814486903839197
0.0554432965886015,-0.0806430263214182
0.0538319684636024,-0.0838656825714203
0.0892811872136018,-0.0846713466339186
0.0498036481511011,-0.08869966694642
0.087669859088602,-0.0838656825714183
0.0594716169011011,-0.0766147060089195
0.0723622419011015,-0.0725863856964196
0.0796132184636012,-0.0854770106964208
0.0643056012761022,-0.0870883388214198
0.0433583356511018,-0.0870883388214201
0.0433583356511015,-0.0870883388214201
0.0570546247136015,-0.085477010696419
0.0659169294011018,-0.0878940028839189
0.0514149762761019,-0.0870883388214193
0.0691395856511019,-0.0814486903839187
0.0538319684636025,-0.0766147060089193
0.0417470075261024,-0.0846713466339193
0.0328847028386014,-0.0903109950714194
0.0385243512761023,-0.0951449794464182
0.0385243512761027,-0.0967563075714192
-0.0541270159113981,-0.0774203700714197
-0.168531312786398,-0.0790316981964193
-0.162891664348898,-0.0814486903839194
-0.164502992473899,-0.0895053310089199
-0.193506898723898,-0.0919223231964193
-0.201563539348898,-0.102395956008919
-0.157252015911399,-0.0870883388214202
-0.109717836223897,-0.0854770106964191
-0.0662119768488982,-0.0911166591339201
-0.0202891252863984,-0.0895053310089193
-0.0573496721613989,-0.0870883388214207
-0.103272523723898,-0.0919223231964195
-0.054932679973899,-0.0886996669464201
-0.0331797502863979,-0.0806430263214192
-0.0420420549738987,-0.0878940028839201
-0.0589610002863984,-0.114480916946419
-0.0613779924738982,-0.0790316981964199
0.0522206403386019,-0.0999789638214192
0.121507749713602,-0.0862826747589192
0.145677671588602,-0.0822543544464196
0.122313413776101,-0.0806430263214197
0.126341734088602,-0.086282674758919
0.105394468463601,-0.0886996669464199
0.0473866559636021,-0.0806430263214196
0.0691395856511012,-0.0838656825714205
0.0771962262761009,-0.10159029194642
0.0643056012761012,-0.0806430263214195
0.0175770856511006,-0.0685580653839206
-0.000953187786398267,-0.0806430263214199
0.0433583356511018,-0.0830600185089194
0.0747792340886016,-0.0782260341339189
0.0473866559636026,-0.0846713466339189
0.030467710651102,-0.08789400288392
0.0530263044011018,-0.0919223231964192
0.083641538776101,-0.0903109950714207
0.0691395856511031,-0.093533651321418
0.0433583356511023,-0.0790316981964193
0.0489979840886025,-0.0758090419464195
0.0651112653386021,-0.0838656825714206
0.0683339215886008,-0.0766147060089201
0.0820302106511019,-0.0774203700714191
0.0667225934636019,-0.0806430263214201
0.046580991901102,-0.0870883388214194
-0.00659283622389853,-0.08064302632142
0.012743101276101,-0.0766147060089203
0.0280507184636027,-0.0814486903839194
0.0514149762761024,-0.114480916946419
0.055443296588601,-0.0838656825714212
0.0522206403386009,-0.0725863856964201
0.0457753278386012,-0.07419771382142
0.0409413434636005,-0.0806430263214209
-0.0210947893488977,-0.0532504481964193
-0.0855479143488976,-0.0766147060089196
-0.132276429973899,-0.0878940028839197
-0.135499086223896,-0.0750033778839192
-0.145167054973898,-0.0741977138214194
-0.186255922161397,-0.0846713466339191
-0.187061586223898,-0.0766147060089196
-0.0839365862238984,-0.0766147060089204
-0.0557383440363986,-0.0733920497589203
-0.0428477190363993,-0.080643026321421
-0.0855479143488978,-0.0766147060089196
-0.0637949846613986,-0.0693637294464193
0.0683339215886019,-0.0733920497589202
0.135204038776102,-0.0725863856964192
0.151317320026102,-0.0750033778839196
0.0723622419011022,-0.0741977138214186
-0.102466859661398,-0.0782260341339197
-0.152418031536398,-0.0766147060089193
-0.102466859661398,-0.0766147060089192
0.0296620465886017,-0.0741977138214191
0.140843687213601,-0.0766147060089203
0.1569569684636,-0.0822543544464195
0.098143491901102,-0.0790316981964193
0.0691395856511012,-0.0758090419464202
0.0578602887761017,-0.0733920497589186
0.105394468463602,-0.0733920497589188
0.0908925153386014,-0.0766147060089199
-0.00417584403639827,-0.0822543544464194
0.015965757526102,-0.0733920497589185
0.086058530963602,-0.0709750575714199
0.0699452497136021,-0.0911166591339187
0.0506093122136012,-0.0725863856964193
0.0651112653386022,-0.0758090419464192
0.0224110700261011,-0.0741977138214199
-0.0573496721613974,-0.0822543544464191
0.0361073590886017,-0.0717807216339191
0.0489979840886016,-0.0854770106964184
-0.0364024065363988,-0.0774203700714207
-0.0339854143488981,-0.087088338821419
0.092503843463601,-0.07661470600892
0.095726499713601,-0.0733920497589198
-0.0670176409113973,-0.0822543544464189
-0.132276429973898,-0.0854770106964191
-0.0267344377863981,-0.0766147060089199
0.0320790387761025,-0.0725863856964186
0.0538319684636022,-0.079031698196419
0.0691395856511016,-0.07822603413392
-0.0355967424738984,-0.0790316981964202
-0.0597666643488983,-0.0766147060089203
-0.1363047502864,-0.0766147060089197
-0.0871592424738971,-0.0766147060089187
-0.0154551409113977,-0.0766147060089199
-0.00981549247389949,-0.0790316981964209
-0.112134828411398,-0.0677524013214201
-0.144361390911398,-0.0774203700714189
-0.0589610002863976,-0.0774203700714198
-0.0380137346613983,-0.0798373622589192
-0.0251231096613976,-0.0758090419464191
-0.109717836223899,-0.0693637294464203
-0.257960023723899,-0.0967563075714187
-0.231373109661397,-0.0814486903839184
-0.186255922161399,-0.0629184169464206
-0.136304750286398,-0.0725863856964189
-0.108912172161398,-0.0685580653839189
-0.0992442034113981,-0.0677524013214209
-0.110523500286399,-0.0741977138214201
-0.148389711223897,-0.0741977138214181
-0.136304750286398,-0.0774203700714199
-0.104883851848899,-0.09192232319642
-0.0597666643488979,-0.0903109950714192
-0.0412363909113981,-0.0709750575714201
-0.0452647112238987,-0.0766147060089191
-0.034791078411399,-0.0790316981964194
-0.0339854143488971,-0.0750033778839193
-0.0436533830988983,-0.0903109950714193
-0.111329164348898,-0.07580904194642
-0.0992442034113982,-0.0766147060089199
-0.0525156877863991,-0.0838656825714205
-0.0339854143488988,-0.0758090419464191
-0.0235117815363974,-0.0750033778839186
-0.0186777971613988,-0.0766147060089189
-0.0170664690363983,-0.0822543544464189
-0.103272523723899,-0.0798373622589209
-0.0895762346613981,-0.0878940028839198
-0.0637949846613977,-0.0862826747589196
-0.0210947893488989,-0.0693637294464199
-0.00256451591139786,-0.0725863856964194
0.0119374372136016,-0.0766147060089198
0.00710345283860197,-0.0750033778839193
-0.0766856096613994,-0.0637240810089211
-0.0815195940363977,-0.0750033778839187
-0.0202891252863977,-0.0766147060089196
0.000658140338601877,-0.0774203700714199
-0.00981549247389856,-0.0862826747589194
0.00468646065110123,-0.0782260341339203
-0.0468760393488985,-0.0814486903839192
-0.0573496721613981,-0.0766147060089192
-0.0807139299738975,-0.0806430263214187
-0.158057679973899,-0.0870883388214197
-0.170142640911398,-0.0766147060089203
-0.196729554973897,-0.0790316981964187
-0.247486390911398,-0.0782260341339188
-0.266016664348899,-0.0798373622589199
-0.314356508098898,-0.0758090419464198
-0.345777406536399,-0.0766147060089198
-0.290992250286399,-0.0709750575714197
-0.178199281536398,-0.0733920497589197
-0.176587953411397,-0.0766147060089196
-0.179810609661399,-0.0806430263214195
-0.216871156536399,-0.0766147060089198
-0.249903383098899,-0.0725863856964203
-0.280518617473898,-0.0637240810089194
-0.217676820598899,-0.0685580653839204
-0.238624086223898,-0.0766147060089193
-0.299854554973898,-0.0798373622589195
-0.286963929973898,-0.0846713466339194
-0.315967836223897,-0.0709750575714189
-0.314356508098898,-0.0782260341339205
-0.294214906536399,-0.0717807216339202
-0.278101625286398,-0.0895053310089192
-0.290186586223898,-0.0774203700714183
-0.255543031536399,-0.0766147060089199
-0.165308656536399,-0.0709750575714205
-0.0742686174738988,-0.0725863856964201
-0.162086000286398,-0.0766147060089198
-0.246680726848898,-0.0774203700714193
-0.295826234661399,-0.0725863856964203
-0.266016664348899,-0.0717807216339203
-0.178199281536399,-0.0806430263214211
-0.193506898723898,-0.0669467372589202
-0.158863344036399,-0.0709750575714207
-0.162086000286398,-0.07661470600892
-0.187061586223898,-0.0725863856964201
-0.177393617473897,-0.0774203700714192
-0.090381898723898,-0.0782260341339196
-0.0347910784113976,-0.0758090419464198
-0.0871592424738983,-0.0967563075714197
-0.108912172161398,-0.0919223231964189
-0.0839365862238977,-0.0725863856964201
-0.0476817034113986,-0.0508334560089186
-0.0903818987238992,-0.0814486903839202
-0.098438539348898,-0.0766147060089199
-0.000953187786399141,-0.0838656825714207
0.0828358747136015,-0.0846713466339193
0.129564390338602,-0.074197713821419
0.112645445026101,-0.08144869038392
0.0433583356511018,-0.0741977138214191
0.0344960309636013,-0.0717807216339201
0.0796132184636008,-0.0766147060089203
0.116673765338601,-0.0806430263214204
0.119896421588601,-0.0766147060089199
0.106200132526102,-0.076614706008919
0.115868101276103,-0.0766147060089196
0.120702085651102,-0.0814486903839198
0.0699452497136012,-0.07661470600892
0.0433583356511021,-0.0766147060089192
0.0643056012761012,-0.0814486903839194
0.0675282575261009,-0.0677524013214198
0.0699452497136014,-0.0774203700714186
0.0224110700261011,-0.0766147060089204
0.041747007526101,-0.07258638569642
0.0699452497136028,-0.0814486903839194
0.0747792340886014,-0.0766147060089201
0.0747792340886018,-0.0701693935089201
0.0820302106511013,-0.0782260341339199
0.0546376325261024,-0.0790316981964196
0.000658140338600632,-0.0766147060089207
0.0393300153386018,-0.0717807216339202
0.0489979840886028,-0.0822543544464198
0.0578602887761016,-0.07822603413392
0.0578602887761021,-0.0741977138214197
0.0610829450261018,-0.070169393508919
0.0216054059636005,-0.07178072163392
0.0175770856511024,-0.0741977138214191
0.0602772809636015,-0.0693637294464199
0.0651112653386014,-0.0750033778839202
0.0328847028386017,-0.0645297450714201
0.0433583356511019,-0.0741977138214202
0.0457753278386016,-0.0766147060089207
0.0167714215886008,-0.0669467372589198
-0.0444590471613993,-0.0725863856964201
-0.0186777971613976,-0.0750033778839183
0.0417470075261012,-0.0733920497589191
0.0481923200261018,-0.0693637294464194
0.0417470075261012,-0.0556674403839194
0.0191884137761016,-0.0766147060089203
-0.00981549247389857,-0.06614107319642
-0.0082041643488972,-0.0741977138214186
0.055443296588601,-0.0750033778839207
0.0433583356511023,-0.07661470600892
0.0127431012761009,-0.0758090419464203
0.028856382526102,-0.0588900966339184
0.0143544294011012,-0.0677524013214199
-0.067017640911397,-0.0782260341339193
-0.124219789348899,-0.0766147060089197
-0.120997133098898,-0.0725863856964193
-0.138721742473899,-0.0669467372589198
-0.130665101848898,-0.0999789638214195
-0.109717836223898,-0.0717807216339191
-0.134693422161397,-0.0741977138214197
-0.176587953411399,-0.0766147060089202
-0.162086000286399,-0.0693637294464199
-0.112940492473898,-0.0717807216339204
-0.0863535784113993,-0.0725863856964208
-0.0710459612238985,-0.0709750575714205
-0.0895762346613992,-0.0741977138214203
-0.128248109661398,-0.0637240810089194
-0.0863535784113979,-0.0621127528839198
-0.0621836565363981,-0.0782260341339199
-0.0815195940363992,-0.0750033778839209
-0.124219789348899,-0.0709750575714204
-0.125831117473898,-0.0717807216339199
-0.150806703411398,-0.0653354091339196
-0.101661195598899,-0.0685580653839197
-0.034791078411398,-0.0693637294464201
-0.013038148723898,-0.0725863856964202
-0.0331797502863984,-0.072586385696419
-0.0589610002863984,-0.0766147060089197
-0.0315684221613985,-0.0741977138214197
-0.0202891252863986,-0.0758090419464196
-0.00739850028639844,-0.07258638569642
0.0256337262761011,-0.0766147060089203
0.0224110700261015,-0.0741977138214187
-0.058961000286398,-0.0758090419464197
-0.109717836223898,-0.062112752883919
-0.0210947893488991,-0.0605014247589204
-0.0154551409113992,-0.0709750575714203
-0.0219004534113982,-0.0758090419464198
-0.0364024065363976,-0.0709750575714187
-0.0122324846613988,-0.0750033778839196
-0.00337017997389899,-0.0766147060089196
0.0199940778386015,-0.0677524013214203
0.0304677106511014,-0.0677524013214192
0.00549212471360046,-0.067752401321421
-0.00820416434889848,-0.0580844325714198
0.0731679059636021,-0.0766147060089197
0.0949208356511024,-0.0733920497589198
0.165819273151101,-0.0685580653839199
0.188377866901102,-0.0621127528839205
0.172264585651102,-0.0645297450714197
0.208519468463602,-0.0677524013214198
0.245580015338601,-0.0717807216339202
0.260887632526103,-0.0645297450714196
0.249608335651101,-0.0629184169464199
0.172264585651102,-0.0677524013214206
0.146483335651102,-0.0596957606964193
0.174681577838601,-0.0733920497589204
0.165013609088602,-0.0580844325714198
0.154539976276102,-0.066946737258919
0.0796132184636016,-0.0677524013214199
-0.0178721330988987,-0.0750033778839199
-0.0815195940363971,-0.0838656825714196
-0.129053773723899,-0.0669467372589187
-0.115357484661399,-0.0677524013214204
-0.136304750286398,-0.0637240810089196
-0.118580140911399,-0.0653354091339204
-0.0782969377863981,-0.0766147060089187
-0.0364024065363995,-0.0661410731964209
-0.0154551409113981,-0.0588900966339198
-0.0573496721613977,-0.0661410731964188
-0.0911875627863981,-0.0733920497589196
-0.0428477190363976,-0.0766147060089191
-0.0138438127863975,-0.0741977138214188
-0.00820416434889863,-0.0588900966339195
-0.00578717216139827,-0.068558065383919
-0.00820416434889889,-0.0766147060089193
-0.031568422161399,-0.0750033778839209
-0.0468760393488979,-0.0782260341339189
-0.0847422502863987,-0.0645297450714193
-0.0597666643488977,-0.0621127528839196
-0.0420420549738989,-0.06694673725892
-0.00820416434889872,-0.062112752883921
-0.00820416434889908,-0.0750033778839197
-0.0589610002863984,-0.0725863856964204
-0.0476817034113986,-0.0661410731964201
0.00629778877610186,-0.0661410731964202
0.0691395856511025,-0.0669467372589185
0.124730405963601,-0.0613070888214203
0.111839780963601,-0.0717807216339197
0.061082945026101,-0.0766147060089199
0.038524351276102,-0.0661410731964188
0.0908925153386023,-0.0596957606964194
0.132787046588602,-0.0492221278839193
0.0796132184636028,-0.0596957606964194
0.0361073590886019,-0.0556674403839198
0.0280507184636006,-0.0717807216339205
0.077196226276102,-0.0637240810089196
0.0433583356511012,-0.0733920497589201
0.051414976276102,-0.0766147060089195
0.0643056012761025,-0.076614706008918
0.0844472028386018,-0.0725863856964194
0.0836415387761017,-0.0701693935089192
-0.00256451591139796,-0.0717807216339199
-0.0227061174738994,-0.059695760696421
0.0135487653386012,-0.0685580653839202
0.0353016950261012,-0.0766147060089196
0.0328847028386015,-0.075809041946421
-0.0219004534113984,-0.0798373622589202
-0.0347910784113979,-0.0717807216339195
-0.0073985002863987,-0.0741977138214199
0.0618886090886016,-0.0669467372589193
0.156956968463602,-0.0766147060089191
0.144066343463602,-0.0838656825714203
0.0103261090886018,-0.0766147060089193
-0.0525156877863984,-0.0717807216339196
-0.017066469036398,-0.0508334560089197
0.086058530963602,-0.0653354091339201
0.154539976276102,-0.080643026321419
0.107811460651102,-0.0741977138214206
0.0344960309636021,-0.0645297450714201
0.0610829450261008,-0.0693637294464204
0.0876698590886016,-0.0451938075714186
0.111839780963601,-0.0661410731964206
0.113451109088601,-0.0766147060089201
0.0836415387761015,-0.06775240132142
0.0949208356511024,-0.0725863856964191
0.134398374713603,-0.0621127528839193
0.0489979840886022,-0.06855806538392
-0.0613779924738992,-0.0693637294464204
-0.0799082659113984,-0.0725863856964193
0.0256337262761014,-0.0741977138214201
0.0925038434636013,-0.0580844325714198
0.0683339215886017,-0.0709750575714196
0.058665952838602,-0.0725863856964204
0.0022694684636021,-0.0508334560089184
-0.0492930315363973,-0.0661410731964194
-0.124219789348899,-0.0685580653839195
-0.0984385393488977,-0.0621127528839189
-0.077491273723899,-0.0637240810089205
-0.101661195598899,-0.0717807216339209
-0.147584047161398,-0.0613070888214197
-0.138721742473899,-0.0677524013214193
-0.125831117473899,-0.07178072163392
-0.102466859661398,-0.0677524013214191
-0.0726572893488984,-0.0766147060089194
-0.129053773723898,-0.0645297450714184
-0.148389711223898,-0.0613070888214197
-0.116968812786398,-0.0677524013214195
-0.106495179973899,-0.0741977138214205
-0.0855479143488975,-0.0766147060089193
-0.084742250286398,-0.0613070888214189
-0.0758799455988974,-0.0709750575714196
-0.0992442034113988,-0.0709750575714198
-0.137110414348899,-0.0693637294464201
-0.107300844036397,-0.0645297450714192
0.119896421588602,-0.05969576069642
0.0538319684636009,-0.0645297450714198
0.0385243512761012,-0.0766147060089199
0.0675282575261017,-0.0677524013214195
0.107005796588601,-0.103201620071421
0.139232359088602,-0.0693637294464195
0.106200132526101,-0.0717807216339203
0.0103261090886011,-0.0637240810089205
0.0602772809636012,-0.0508334560089199
0.129564390338602,-0.0605014247589194
0.174681577838602,-0.0629184169464189
0.110228452838601,-0.0645297450714198
0.0361073590886015,-0.0741977138214193
0.0602772809636018,-0.0766147060089197
0.0256337262761018,-0.0685580653839197
0.0546376325261029,-0.0677524013214193
0.0836415387761012,-0.0613070888214205
0.104588804401101,-0.0709750575714198
0.0183827497136021,-0.07661470600892
-0.0331797502863988,-0.0766147060089196
-0.0162608049738987,-0.07500337788392
-0.00900982841139895,-0.0709750575714203
-0.0267344377863974,-0.0693637294464191
-0.0613779924738974,-0.0766147060089195
-0.038013734661398,-0.0758090419464195
-0.0130381487238986,-0.0774203700714204
-0.0154551409113979,-0.0774203700714198
0.00226946846360171,-0.0806430263214192
-0.00981549247389818,-0.0741977138214188
-0.00820416434889846,-0.0790316981964197
0.0167714215886008,-0.0782260341339198
0.030467710651102,-0.0766147060089184
0.0361073590886022,-0.0758090419464202
0.0538319684636005,-0.0806430263214201
0.0264393903386021,-0.0838656825714194
-0.034791078411398,-0.0895053310089195
-0.00820416434889844,-0.0903109950714195
0.033690366901102,-0.0854770106964194
0.0489979840886022,-0.0790316981964202
0.0522206403386009,-0.0854770106964197
0.0280507184636007,-0.0886996669464203
0.0312733747136021,-0.102395956008919
0.0691395856511012,-0.10722994038392
0.161790952838601,-0.0943393153839202
0.202879820026102,-0.0983676356964197
0.190794859088603,-0.0895053310089197
0.185960874713601,-0.0895053310089203
0.168236265338601,-0.0895053310089198
0.0643056012761018,-0.0766147060089186
0.0425526715886014,-0.0886996669464192
-0.0388193987238977,-0.0951449794464189
-0.0597666643488995,-0.0766147060089208
-0.0331797502863981,-0.0846713466339203
0.0103261090886014,-0.0806430263214191
-0.00820416434889765,-0.0878940028839189
0.00226946846360216,-0.0846713466339189
0.0908925153386015,-0.0903109950714195
0.184349546588602,-0.0766147060089198
0.195628843463602,-0.0838656825714195
0.180321226276101,-0.0911166591339201
0.0957264997136024,-0.0886996669464189
0.0618886090886012,-0.0878940028839201
0.130370054401102,-0.0870883388214189
0.155345640338602,-0.0806430263214194
0.107005796588601,-0.0903109950714206
0.1384266950261,-0.104007284133921
0.102171812213602,-0.0903109950714197
0.087669859088601,-0.0878940028839198
0.120702085651102,-0.0774203700714195
0.146483335651102,-0.0822543544464198
0.0699452497136021,-0.10481294819642
0.0949208356511008,-0.0943393153839198
0.0957264997136014,-0.0911166591339202
-0.00820416434889734,-0.0967563075714193
-0.00820416434889737,-0.0943393153839189
0.0135487653386017,-0.0943393153839197
0.0659169294011025,-0.0895053310089183
0.0288563825261008,-0.10803560444642
0.0224110700261012,-0.0951449794464207
-0.0517100237238977,-0.0903109950714197
-0.0597666643488988,-0.0967563075714198
0.00388079658860094,-0.0911166591339209
0.028050718463601,-0.0943393153839203
-0.0412363909113977,-0.0886996669464196
-0.125831117473898,-0.0895053310089197
-0.195923890911398,-0.0951449794464203
-0.224927797161398,-0.0870883388214202
-0.234595765911398,-0.101590291946419
-0.140333070598897,-0.10239595600892
-0.137110414348898,-0.0911166591339191
-0.133082094036399,-0.0999789638214199
-0.111329164348898,-0.09836763569642
-0.0936045549738985,-0.0983676356964192
-0.137110414348899,-0.0935336513214209
-0.126636781536399,-0.0878940028839201
-0.0621836565363983,-0.0886996669464192
-0.0154551409113987,-0.0903109950714195
-0.0202891252863987,-0.0895053310089203
-0.0170664690363979,-0.0886996669464201
-0.00981549247389901,-0.0838656825714209
-0.0710459612238988,-0.0814486903839198
-0.0646006487238985,-0.0846713466339201
-0.0210947893488986,-0.0774203700714199
0.00307513252610285,-0.0766147060089188
0.0175770856511019,-0.0741977138214198
-0.0251231096613976,-0.0895053310089197
-0.047681703411399,-0.0790316981964204
0.0417470075261017,-0.075003377883919
0.103783140338601,-0.0846713466339195
0.120702085651101,-0.0774203700714195
0.122313413776102,-0.0677524013214187
0.134398374713602,-0.0895053310089191
0.0860585309636027,-0.0766147060089197
0.00710345283860328,-0.0782260341339194
0.0780018903386013,-0.0838656825714206
0.136009702838602,-0.0814486903839189
0.060277280963601,-0.0782260341339204
-0.0194834612238995,-0.0878940028839195
-0.072657289348898,-0.0903109950714188
-0.0468760393488981,-0.0886996669464199
0.00307513252610247,-0.0806430263214191
0.0941151715886019,-0.0999789638214203
0.147288999713602,-0.0975619716339208
0.160179624713601,-0.09111665913392
0.0844472028386002,-0.0621127528839204
-0.0654063127863979,-0.0927279872589191
-0.0654063127863988,-0.088699666946419
0.00388079658860233,-0.0878940028839185
0.113451109088601,-0.0895053310089206
0.146483335651102,-0.0903109950714197
0.067528257526102,-0.09756197163392
0.0433583356511017,-0.0895053310089192
0.106200132526101,-0.0886996669464191
0.131981382526102,-0.0919223231964199
0.148094663776102,-0.0919223231964199
0.109422788776102,-0.0846713466339183
-0.071851625286398,-0.103201620071419
-0.133082094036397,-0.0975619716339187
-0.0855479143488986,-0.10239595600892
0.0353016950261016,-0.0717807216339195
0.110228452838602,-0.0886996669464187
0.145677671588601,-0.0959506435089195
0.146483335651102,-0.0717807216339197
-0.0130381487238973,-0.0943393153839192
-0.103272523723899,-0.0693637294464199
-0.103272523723898,-0.0838656825714188
-0.0750742815363981,-0.0822543544464196
-0.0484873674738983,-0.0846713466339191
-0.0581553362238987,-0.0766147060089202
-0.0517100237238986,-0.0806430263214202
-0.059766664348898,-0.0709750575714185
-0.112134828411398,-0.0870883388214192
-0.129053773723898,-0.09031099507142
-0.0742686174738988,-0.0846713466339201
-0.0533213518488978,-0.100784627883919
-0.0517100237238991,-0.0870883388214193
-0.0476817034113976,-0.07661470600892
-0.0855479143488974,-0.0903109950714193
-0.085547914348898,-0.084671346633919
-0.0960215471613984,-0.0596957606964196
-0.0162608049738978,-0.0766147060089196
-0.054932679973898,-0.0814486903839195
-0.0468760393488995,-0.0693637294464204
-0.0903818987238982,-0.0709750575714214
-0.0984385393488978,-0.0886996669464194
-0.0621836565363989,-0.08467134663392
-0.0243174455988987,-0.0774203700714198
-0.032374086223899,-0.0846713466339205
0.0167714215886019,-0.0935336513214199
0.0699452497136017,-0.0677524013214198
0.100560484088601,-0.0693637294464197
0.112645445026102,-0.0798373622589195
0.0828358747136016,-0.0895053310089196
-0.0404307268488982,-0.0766147060089193
0.00549212471360197,-0.0758090419464204
0.0538319684636009,-0.0758090419464202
0.0586659528386002,-0.0548617763214202
0.0514149762761019,-0.0645297450714193
0.0304677106511011,-0.0741977138214198
-0.0355967424738978,-0.0693637294464197
-0.0315684221613981,-0.0766147060089196
-0.0154551409113985,-0.0669467372589192
0.0506093122136014,-0.0895053310089186
0.094920835651101,-0.0846713466339198
-0.0130381487238989,-0.0548617763214204
0.016771421588602,-0.0629184169464191
0.0554432965886018,-0.0806430263214188
0.148094663776101,-0.0709750575714197
0.138426695026101,-0.06694673725892
0.146483335651102,-0.0782260341339198
0.0151600934636014,-0.0919223231964192
-0.00820416434889903,-0.0693637294464207
0.0634999372136023,-0.0613070888214186
0.0973378278386011,-0.0766147060089208
0.0844472028386016,-0.0596957606964196
0.0441639997136015,-0.0661410731964197
0.022411070026102,-0.05808443257142
-0.0219004534113993,-0.0854770106964203
-0.0355967424738982,-0.0878940028839197
-0.00820416434889937,-0.0725863856964195
0.0900868512761012,-0.0508334560089193
0.118285093463601,-0.0806430263214186
0.103783140338602,-0.10159029194642
0.0328847028386015,-0.060501424758919
0.0385243512761014,-0.0621127528839195
0.0264393903386023,-0.0693637294464199
-0.0339854143488978,-0.0540561122589188
-0.00820416434889854,-0.0758090419464201
0.0183827497136024,-0.0798373622589194
0.0127431012761021,-0.0766147060089185
-0.025928773723899,-0.0653354091339202
-0.000147523723898853,-0.0782260341339191
0.113451109088601,-0.0790316981964203
0.136009702838602,-0.0758090419464189
0.144872007526103,-0.07258638569642
0.146483335651102,-0.0468051356964193
0.0683339215886015,-0.0613070888214202
0.00871478096360232,-0.0741977138214197
0.0159657575261026,-0.0766147060089184
0.110228452838602,-0.07419771382142
0.133592710651101,-0.0774203700714201
0.0989491559636011,-0.0653354091339204
0.0175770856511026,-0.0556674403839191
-0.0210947893488984,-0.0766147060089197
-0.0420420549738975,-0.07661470600892
-0.0476817034113984,-0.0758090419464191
-0.0355967424738973,-0.0806430263214193
-0.116163148723898,-0.0613070888214191
-0.105689515911398,-0.0733920497589206
-0.050904359661399,-0.0532504481964201
-0.0444590471613986,-0.0838656825714183
-0.035596742473899,-0.0895053310089205
-0.0847422502863987,-0.0661410731964202
-0.0855479143488982,-0.0766147060089195
-0.0291514299738978,-0.0621127528839194
-0.00739850028639882,-0.0605014247589191
0.000658140338601418,-0.06372408100892
0.0264393903386007,-0.0564731044464208
0.0578602887761029,-0.0516391200714198
0.0667225934636006,-0.05244478413392
0.0675282575261006,-0.0750033778839201
0.0506093122136007,-0.0653354091339206
0.0167714215886013,-0.0693637294464196
-0.0339854143488994,-0.0741977138214203
0.0127431012761016,-0.0774203700714193
-0.0090098284113972,-0.0709750575714191
0.0224110700261023,-0.0564731044464189
0.0175770856511016,-0.0564731044464192
0.0207997419011022,-0.0411654872589198
0.0232167340886013,-0.0379428310089198
0.0473866559636022,-0.0669467372589193
0.0804188825261016,-0.0524447841339189
0.0812245465886007,-0.0508334560089199
-0.00256451591139908,-0.0693637294464197
-0.0855479143488977,-0.0548617763214199
-0.0952158830988978,-0.0645297450714182
0.0361073590886029,-0.0629184169464188
0.0707509137761017,-0.0766147060089199
0.0868641950261023,-0.051639120071419
0.0876698590886017,-0.0508334560089191
0.0707509137761023,-0.0774203700714191
0.0699452497136008,-0.0814486903839202
0.0183827497136013,-0.0363315028839205
-0.0726572893488984,-0.0427768153839204
-0.0782969377863977,-0.0653354091339201
-0.0823252580988988,-0.0661410731964194
-0.0597666643488984,-0.0677524013214195
-0.0509043596613979,-0.0459994716339189
-0.0710459612238988,-0.0492221278839194
-0.107300844036398,-0.0613070888214193
-0.0976328752863985,-0.0451938075714206
-0.0758799455988976,-0.0435824794464195
-0.0404307268488984,-0.04680513569642
-0.0541270159113978,-0.0516391200714198
-0.0355967424738982,-0.050833456008919
-0.0573496721613984,-0.0605014247589186
-0.0122324846613981,-0.03794283100892
0.0594716169011018,-0.0492221278839193
0.0256337262761019,-0.050833456008919
-0.017066469036398,-0.0741977138214198
-0.075074281536399,-0.0508334560089201
-0.104078187786397,-0.0282748622589199
-0.0549326799738986,-0.0508334560089202
0.0232167340886024,-0.0508334560089194
0.0554432965886011,-0.0693637294464203
-0.018677797161399,-0.0508334560089206
-0.059766664348899,-0.0508334560089204
-0.0654063127863983,-0.0532504481964192
-0.00900982841139875,-0.05083345600892
0.0900868512761016,-0.075003377883919
0.107005796588601,-0.0870883388214205
0.0151600934636013,-0.0250522060089196
-0.0855479143488987,-0.0387484950714201
-0.0815195940363979,-0.0451938075714184
-0.0702402971613986,-0.0500277919464201
-0.0517100237238981,-0.0395541591339193
-0.0355967424738989,-0.0218295497589202
-0.0670176409113984,-0.0653354091339195
-0.0847422502863971,-0.0846713466339187
-0.058961000286398,-0.0379428310089194
-0.0339854143488974,-0.0355258388214194
-0.0170664690363983,-0.0516391200714191
-0.0194834612238974,-0.0621127528839187
-0.0766856096613984,-0.042776815383919
-0.0960215471613992,-0.06291841694642
-0.0702402971613975,-0.0580844325714189
-0.0412363909113976,-0.0508334560089198
-0.0210947893488986,-0.0298861903839202
0.0191884137761015,-0.0323031825714199
-0.0678233049738983,-0.0580844325714189
0.0385243512761023,-0.066141073196419
0.172264585651102,-0.0516391200714199
0.202074155963602,-0.0548617763214207
0.189989195026103,-0.040359823196419
0.0796132184636014,-0.0419711513214197
0.0538319684636024,-0.0669467372589196
0.133592710651102,-0.0580844325714185
0.136009702838602,-0.0339145106964189
0.1327870465886,-0.0524447841339199
0.108617124713601,-0.0580844325714207
0.101366148151102,-0.0895053310089196
0.132787046588602,-0.0588900966339195
0.118285093463602,-0.0484164638214191
-0.0380137346613986,-0.0516391200714199
-0.0557383440363979,-0.0451938075714205
0.0836415387761005,-0.0548617763214209
0.101366148151102,-0.0524447841339204
0.111839780963602,-0.00974458882141943
0.121507749713602,-0.0419711513214204
0.0062977887761016,-0.0459994716339199
0.0699452497136018,-0.0419711513214191
0.080418882526102,-0.0508334560089194
0.0457753278386018,-0.0637240810089204
-0.020289125286398,-0.0548617763214195
0.0892811872136012,-0.0540561122589201
0.0457753278386017,-0.0637240810089192
0.00710345283860216,-0.0532504481964195
0.0949208356511016,-0.06130708882142
0.0715565778386014,-0.0596957606964197
-0.0170664690363983,-0.0419711513214201
0.0175770856511024,-0.037942831008919
0.118285093463602,-0.0484164638214205
0.108617124713601,-0.0468051356964195
-0.0090098284113981,-0.0637240810089197
-0.137916078411399,-0.0596957606964204
-0.166114320598898,-0.0661410731964192
-0.126636781536399,-0.0540561122589203
-0.0855479143488984,-0.0540561122589197
-0.0863535784113984,-0.0492221278839205
-0.0847422502863984,-0.0500277919464201
-0.0686289690363986,-0.0508334560089195
-0.0412363909113982,-0.0548617763214193
-0.0420420549738981,-0.0508334560089192
-0.0396250627863985,-0.0580844325714186
-0.166114320598899,-0.0677524013214203
-0.123414125286397,-0.0468051356964197
-0.0984385393488983,-0.0403598231964196
-0.0347910784113986,-0.0508334560089192
-0.0339854143488977,-0.0741977138214192
-0.0629893205988977,-0.0629184169464192
-0.0968272112238985,-0.0685580653839196
-0.0718516252863987,-0.0419711513214206
-0.0339854143488992,-0.0516391200714202
-0.0331797502863981,-0.0846713466339187
-0.0202891252863987,-0.0516391200714193
-0.025123109661398,-0.0548617763214184
-0.0734629534113982,-0.0427768153839201
-0.0355967424738986,-0.055667440383921
0.0320790387761015,-0.0637240810089211
0.146483335651101,-0.0459994716339187
0.177904234088601,-0.0516391200714202
0.156151304401103,-0.0556674403839191
0.115062437213601,-0.0629184169464199
0.133592710651102,-0.0508334560089201
0.140843687213602,-0.0596957606964187
0.148900327838601,-0.0492221278839204
0.1464833356511,-0.0588900966339208
0.158568296588603,-0.0621127528839185
0.136009702838602,-0.0484164638214184
0.0949208356511019,-0.0451938075714195
0.0868641950261014,-0.0580844325714203
0.1408436872136,-0.0524447841339206
0.0933095075261025,-0.0572787685089198
0.0175770856511019,-0.0677524013214199
-0.0525156877863993,-0.0476107997589202
0.00549212471360149,-0.0508334560089204
0.0570546247136021,-0.0766147060089199
0.0804188825261015,-0.0637240810089198
0.0973378278386014,-0.0532504481964206
0.0908925153386025,-0.0548617763214194
0.0481923200261014,-0.0564731044464197
-0.133082094036397,-0.0629184169464198
-0.170142640911398,-0.0895053310089201
-0.132276429973898,-0.0556674403839194
-0.0944102190363986,-0.0693637294464197
-0.0855479143488981,-0.0621127528839197
-0.141944398723898,-0.06452974507142
-0.139527406536398,-0.04519380757142
-0.0774912737238987,-0.0596957606964203
-0.0460703752863986,-0.06775240132142
-0.0460703752863984,-0.0500277919464189
-0.0597666643488987,-0.0508334560089197
-0.0742686174738983,-0.054861776321419
-0.116968812786398,-0.0693637294464195
-0.0678233049738987,-0.0588900966339194
-0.0210947893488981,-0.0629184169464195
-0.0331797502863986,-0.0669467372589196
-0.0251231096613986,-0.054861776321419
-0.0299570940363987,-0.0508334560089195
-0.0952158830988985,-0.0500277919464202
-0.0839365862238985,-0.0548617763214195
-0.0339854143488985,-0.0516391200714197
-0.0170664690363979,-0.0492221278839186
0.0586659528386005,-0.0621127528839201
0.0780018903386015,-0.0685580653839185
0.0989491559636011,-0.0516391200714196
0.0304677106511016,-0.0459994716339198
-0.0355967424738987,-0.0508334560089199
-0.0557383440363974,-0.0629184169464188
0.0304677106511007,-0.0540561122589203
0.109422788776102,-0.0419711513214195
0.161790952838602,-0.0629184169464196
0.179515562213602,-0.0645297450714196
0.0707509137761006,-0.0459994716339208
-0.0766856096613993,-0.05486177632142
-0.0702402971613972,-0.0637240810089192
-0.0283457659113988,-0.0532504481964199
0.00549212471360142,-0.0459994716339189
0.0304677106511029,-0.0548617763214183
-0.0186777971613988,-0.0588900966339211
-0.0509043596613994,-0.0476107997589209
-0.0549326799738989,-0.0476107997589199
0.00629778877610102,-0.0629184169464196
0.0135487653386022,-0.0508334560089202
0.0191884137761021,-0.0323031825714185
0.0151600934636015,-0.0685580653839191
0.0167714215886016,-0.06855806538392
0.0344960309636013,-0.0524447841339194
-0.042847719036399,-0.0524447841339198
-0.0347910784113982,-0.0379428310089195
0.0054921247136025,-0.0621127528839198
0.020799741901102,-0.0476107997589197
0.0377186872136013,-0.0500277919464204
0.0433583356511018,-0.0661410731964197
0.0393300153386015,-0.0596957606964203
-0.0372080705988979,-0.0403598231964197
0.017577085651102,-0.0637240810089191
0.0771962262761013,-0.0596957606964198
0.131981382526103,-0.0379428310089182
0.158568296588601,-0.0339145106964204
0.134398374713602,-0.037942831008919
0.0248280622136016,-0.0468051356964197
0.0312733747136011,-0.0435824794464207
0.106200132526101,-0.0508334560089201
0.132787046588601,-0.0564731044464192
0.0876698590886019,-0.0331088466339197
0.0248280622136005,-0.0468051356964206
0.00790911690110163,-0.0508334560089202
0.0796132184636008,-0.05002779194642
0.134398374713602,-0.050833456008919
0.170653257526101,-0.0492221278839193
0.118285093463601,-0.0508334560089201
0.0683339215886017,-0.05566744038392
-0.0154551409113986,-0.0556674403839196
-0.0396250627863984,-0.0532504481964199
-0.0114268205988986,-0.0516391200714205
0.0175770856511016,-0.0339145106964199
0.0167714215886014,-0.03794283100892
0.0175770856511001,-0.0572787685089197
0.0965321637761007,-0.04922212788392
0.111839780963601,-0.0500277919464196
0.00226946846360243,-0.0250522060089196
-0.150806703411398,-0.04841646382142
-0.183033265911398,-0.0564731044464186
-0.158863344036399,-0.0508334560089198
-0.0227061174738984,-0.0556674403839197
0.0820302106511007,-0.0484164638214202
0.109422788776102,-0.032303182571418
0.0433583356511027,-0.0653354091339188
-0.0565440080988988,-0.0532504481964194
-0.089576234661399,-0.0588900966339202
-0.0927988909113988,-0.0379428310089197
-0.0380137346613979,-0.0387484950714188
0.0691395856511016,-0.0548617763214199
0.0538319684636006,-0.0580844325714201
0.0514149762761014,-0.0411654872589196
0.0232167340886011,-0.0435824794464191
-0.0702402971613986,-0.0629184169464205
-0.0895762346613983,-0.0685580653839196
-0.115357484661399,-0.05244478413392
-0.188672914348899,-0.0492221278839201
-0.157252015911399,-0.0588900966339204
-0.110523500286398,-0.0508334560089198
-0.0871592424738981,-0.0379428310089201
-0.0750742815363982,-0.0508334560089199
-0.100049867473898,-0.0548617763214192
-0.183838929973897,-0.0339145106964187
-0.162086000286399,-0.0459994716339205
-0.118580140911397,-0.0653354091339191
-0.0855479143488988,-0.0516391200714195
-0.0629893205988987,-0.0508334560089205
-0.1242197893489,-0.0451938075714198
-0.113746156536398,-0.0323031825714198
-0.0678233049738982,-0.0250522060089192
-0.0331797502863986,-0.0508334560089196
-0.0355967424738987,-0.0508334560089208
-0.0235117815363982,-0.0403598231964206
-0.0138438127863985,-0.0766147060089199
-0.0944102190363991,-0.0677524013214201
-0.0992442034113982,-0.0459994716339197
-0.058961000286398,-0.0266635341339184
0.0312733747136023,-0.0419711513214189
0.0868641950261025,-0.0468051356964199
0.0949208356511016,-0.03794283100892
0.0949208356511007,-0.0403598231964199
-0.0412363909113982,-0.0363315028839196
-0.0090098284113979,-0.0323031825714195
0.061888609088601,-0.0371371669464199
0.0973378278386015,-0.0250522060089195
0.0876698590886022,-0.0379428310089187
0.110228452838601,-0.0395541591339201
0.0876698590886011,-0.0218295497589199
0.112645445026101,-0.0379428310089195
0.151317320026102,-0.0508334560089196
0.0771962262761024,-0.0290805263214186
0.0675282575261011,-0.0363315028839197
0.112645445026102,-0.0427768153839201
0.107005796588601,-0.0379428310089198
0.00388079658860163,-0.0202182216339192
0.0304677106511006,-0.0258578700714207
0.0715565778386016,-0.0290805263214208
0.0224110700261021,-0.0169955653839192
-0.0452647112238982,-0.0331088466339203
-0.0702402971613982,-0.0580844325714202
-0.124219789348899,-0.0298861903839202
0.0119374372136009,-0.0387484950714199
0.0610829450261022,-0.0363315028839197
0.0691395856511026,-0.0459994716339192
0.0691395856511029,-0.0298861903839188
0.0296620465886012,-0.0306918544464204
-0.0613779924738992,-0.0331088466339207
0.0151600934636009,-0.0427768153839207
0.105394468463602,-0.0508334560089196
0.118285093463602,-0.0476107997589203
0.037718687213602,-0.0548617763214188
0.0731679059636006,-0.0347201747589203
0.0828358747136018,-0.0427768153839192
0.0771962262761011,-0.0516391200714199
-0.000953187786397004,-0.0459994716339193
-0.118580140911398,-0.0548617763214195
-0.218482484661399,-0.04519380757142
-0.188672914348898,-0.05083345600892
-0.150001039348899,-0.0741977138214207
-0.142750062786398,-0.0580844325714198
-0.133082094036399,-0.0484164638214194
-0.113746156536398,-0.0645297450714198
-0.119385804973899,-0.0661410731964193
-0.206397523723899,-0.0548617763214198
-0.213648500286399,-0.0717807216339207
-0.157252015911398,-0.0798373622589202
-0.119385804973898,-0.0717807216339197
-0.111329164348897,-0.0717807216339183
-0.113746156536399,-0.07419771382142
-0.141138734661399,-0.06211275288392
-0.205591859661398,-0.0741977138214202
-0.154835023723898,-0.0782260341339204
-0.129053773723899,-0.0927279872589204
0.0103261090886022,-0.0895053310089196
0.0183827497136022,-0.0596957606964192
-0.00981549247389828,-0.0613070888214199
-0.0251231096613991,-0.0774203700714196
-0.0412363909113982,-0.08547701069642
-0.102466859661397,-0.12978853413392
-0.0106211565363986,-0.0758090419464202
-0.000147523723898166,-0.0306918544464188
-0.0460703752863984,-0.0677524013214199
-0.0678233049738986,-0.0895053310089199
-0.055738344036399,-0.0999789638214202
-0.0855479143488988,-0.0806430263214197
-0.0927988909113985,-0.0637240810089197
-0.0227061174738975,-0.0741977138214195
0.0393300153386021,-0.10239595600892
0.081224546588601,-0.0830600185089201
0.043358335651101,-0.0822543544464204
0.0715565778386023,-0.0919223231964192
0.0610829450261016,-0.0911166591339201
0.0860585309636009,-0.0758090419464203
0.0602772809636022,-0.0733920497589194
-0.0380137346613981,-0.0870883388214199
0.0175770856511007,-0.0895053310089199
0.0763905622136005,-0.0717807216339203
0.0796132184636028,-0.0854770106964185
0.0385243512761031,-0.0774203700714195
0.0393300153386014,-0.07661470600892
0.0618886090886021,-0.0741977138214187
0.0175770856511011,-0.104007284133921
-0.00578717216139812,-0.0725863856964202
-0.010621156536399,-0.0862826747589202
-0.0098154924738982,-0.0854770106964196
-0.0235117815363984,-0.07661470600892
-0.0444590471613987,-0.0741977138214197
-0.0436533830988993,-0.0532504481964206
-0.0315684221613976,-0.0782260341339196
-0.119385804973898,-0.0500277919464192
-0.0895762346613979,-0.0685580653839199
-0.0315684221613991,-0.0741977138214199
-0.00981549247389876,-0.0766147060089208
-0.0202891252863977,-0.0629184169464189
0.00549212471360175,-0.0693637294464201
-0.0484873674738983,-0.0725863856964192
-0.0541270159113989,-0.0741977138214204
-0.0106211565363983,-0.0637240810089187
0.0546376325261016,-0.0774203700714197
0.118285093463601,-0.0741977138214197
0.113451109088601,-0.0564731044464197
-0.0444590471613992,-0.0621127528839207
-0.0863535784113977,-0.074197713821418
-0.0428477190363986,-0.0750033778839201
-0.0210947893488982,-0.0725863856964194
-0.0082041643488979,-0.0903109950714194
0.0651112653386011,-0.0878940028839204
0.0135487653386015,-0.10642427632142
0.0433583356511015,-0.0508334560089204
0.0699452497136016,-0.0588900966339198
0.0232167340886014,-0.0895053310089201
-0.0597666643488987,-0.0935336513214201
-0.101661195598899,-0.102395956008921
-0.0976328752863976,-0.0766147060089186
-0.0863535784113981,-0.0524447841339193
-0.162891664348897,-0.11528658100892
-0.0855479143488994,-0.0886996669464206
0.0175770856511024,-0.0766147060089196
0.0667225934636012,-0.0790316981964188
0.0489979840886016,-0.0685580653839199
0.050609312213601,-0.0709750575714203
0.0175770856511024,-0.0766147060089197
-0.0186777971613983,-0.0870883388214199
-0.0992442034113981,-0.0613070888214186
-0.0702402971613992,-0.0677524013214212
-0.0339854143488985,-0.0725863856964201
-0.0782969377863991,-0.0758090419464201
-0.158863344036398,-0.07097505757142
-0.188672914348898,-0.0709750575714212
-0.180616273723898,-0.0790316981964193
-0.265211000286398,-0.0741977138214191
-0.227344789348898,-0.0677524013214201
-0.199952211223899,-0.0717807216339199
-0.137916078411398,-0.0661410731964197
-0.144361390911399,-0.0588900966339198
-0.157252015911399,-0.0532504481964196
-0.188672914348897,-0.072586385696419
-0.213648500286398,-0.07097505757142
-0.162086000286399,-0.0999789638214202
-0.129859437786399,-0.0790316981964211
-0.113746156536398,-0.0645297450714204
-0.105689515911398,-0.0653354091339194
-0.129859437786398,-0.0661410731964203
-0.150806703411398,-0.0870883388214195
-0.091187562786399,-0.0613070888214199
-0.0122324846613984,-0.0645297450714187
0.0296620465886013,-0.0621127528839202
-0.00981549247389801,-0.0556674403839198
0.00468646065110203,-0.0629184169464195
0.0433583356511009,-0.0766147060089203
0.00468646065110135,-0.0750033778839202
-0.0210947893488986,-0.0637240810089202
-0.0347910784113983,-0.0725863856964182
0.00790911690110219,-0.0782260341339198
0.0731679059636013,-0.0685580653839204
0.0908925153386025,-0.0766147060089188
0.0667225934636021,-0.0645297450714194
-0.0412363909113983,-0.0677524013214207
-0.0766856096613977,-0.0709750575714183
-0.0581553362238977,-0.0903109950714195
-0.0468760393488986,-0.0758090419464192
-0.00820416434889778,-0.0798373622589204
-0.0323740862238998,-0.0564731044464202
-0.0202891252863976,-0.0605014247589194
-0.0460703752863982,-0.0814486903839194
-0.0944102190363975,-0.0669467372589194
-0.054127015911398,-0.05325044819642
0.0361073590886023,-0.0564731044464193
0.0876698590886023,-0.0621127528839191
0.117479429401101,-0.0758090419464202
0.120702085651101,-0.0653354091339195
0.0812245465886022,-0.0613070888214195
0.0417470075261005,-0.0766147060089202
0.0933095075261011,-0.0790316981964204
0.146483335651101,-0.0733920497589199
0.206102476276102,-0.0693637294464189
0.0344960309636015,-0.0677524013214201
-0.0509043596613978,-0.0637240810089191
-0.0718516252863984,-0.0621127528839202
-0.0444590471613986,-0.0661410731964201
-0.0903818987238991,-0.0717807216339207
-0.133082094036398,-0.0613070888214208
-0.105689515911399,-0.0669467372589205
-0.0766856096613987,-0.0766147060089198
-0.0444590471613985,-0.0782260341339196
-0.0718516252863977,-0.0653354091339191
-0.100049867473897,-0.061307088821419
0.0522206403386014,-0.076614706008919
0.0594716169011019,-0.0798373622589201
0.0473866559636007,-0.0758090419464199
0.0409413434636015,-0.0717807216339203
0.0135487653386007,-0.0661410731964202
-0.0347910784113987,-0.0774203700714199
0.0175770856511023,-0.0766147060089191
0.0248280622136024,-0.0886996669464192
0.0489979840886009,-0.0645297450714203
0.0457753278386018,-0.0548617763214194
0.0256337262761007,-0.04922212788392
-0.080713929973898,-0.085477010696419
-0.0815195940363981,-0.09272798725892
-0.0468760393488992,-0.071780721633921
-0.0122324846613978,-0.0717807216339196
-0.0355967424738991,-0.0790316981964206
-0.085547914348898,-0.0733920497589198
-0.0541270159113978,-0.0766147060089197
-0.00659283622389806,-0.0677524013214194
0.0224110700261017,-0.0685580653839189
0.0473866559636024,-0.0750033778839194
-0.00820416434889861,-0.0613070888214202
-0.0130381487238985,-0.0693637294464197
-0.013843812786397,-0.0669467372589195
-0.0444590471613983,-0.0806430263214189
0.0562489606511011,-0.0838656825714199
0.155345640338602,-0.0717807216339198
0.155345640338603,-0.0637240810089193
0.0667225934636016,-0.0935336513214197
0.106200132526102,-0.0766147060089193
0.185155210651102,-0.0774203700714199
0.194017515338602,-0.0878940028839201
0.102977476276101,-0.0846713466339201
0.0876698590886024,-0.0532504481964193
0.153734312213602,-0.0677524013214192
0.107005796588601,-0.0758090419464199
0.0062977887761014,-0.0741977138214205
0.00790911690110139,-0.0758090419464202
0.0965321637761022,-0.101590291946419
0.144066343463602,-0.0951449794464206
0.125536070026102,-0.0484164638214202
-0.0162608049738982,-0.0766147060089202
-0.0718516252863979,-0.093533651321419
-0.0613779924738988,-0.0895053310089196
-0.062183656536399,-0.0758090419464203
-0.0678233049738988,-0.0806430263214199
-0.0774912737238977,-0.124954549758919
-0.135499086223898,-0.0854770106964188
-0.105689515911398,-0.088699666946419
-0.0782969377863983,-0.0774203700714197
-0.0646006487238986,-0.07178072163392
-0.071045961223899,-0.0782260341339198
-0.109717836223898,-0.0500277919464191
-0.0597666643488973,-0.08064302632142
-0.0396250627863987,-0.07661470600892
-0.0259287737238976,-0.0758090419464185
-0.0388193987238975,-0.0741977138214189
-0.072657289348899,-0.0717807216339209
0.0030751325261012,-0.0741977138214201
0.0409413434636015,-0.0806430263214195
0.0949208356511014,-0.0903109950714192
0.103783140338601,-0.0709750575714203
0.0868641950261028,-0.0766147060089186
0.0425526715886011,-0.060501424758919
-0.025123109661399,-0.0967563075714201
0.034496030963602,-0.0870883388214184
0.0731679059636021,-0.0693637294464194
0.0304677106511013,-0.0701693935089202
-0.00498150809889757,-0.0790316981964192
0.0119374372136009,-0.0895053310089208
0.0731679059636015,-0.0580844325714195
0.0949208356511019,-0.0661410731964199
0.0965321637761016,-0.077420370071419
-0.0210947893488989,-0.0766147060089202
-0.0460703752863993,-0.0532504481964195
-0.0452647112238979,-0.0766147060089198
-0.0202891252863987,-0.0814486903839213
-0.0275401018488987,-0.087894002883919
-0.0339854143488973,-0.076614706008919
-0.0219004534113979,-0.069363729446419
-0.0678233049738981,-0.0661410731964197
-0.0219004534113983,-0.0709750575714193
-0.112940492473898,-0.0766147060089197
-0.0879649065363986,-0.08628267475892
0.000658140338601163,-0.0814486903839202
0.0159657575261013,-0.0766147060089206
0.0191884137761015,-0.0637240810089201
-0.00417584403639732,-0.073392049758919
0.0127431012761016,-0.0814486903839191
-0.0831309221613983,-0.0741977138214198
-0.0911875627863982,-0.0838656825714206
-0.0210947893488977,-0.0782260341339189
0.0151600934636006,-0.0750033778839206
0.00871478096360224,-0.0999789638214201
0.00549212471360166,-0.0733920497589198
0.003880796588602,-0.0830600185089199
0.0167714215886026,-0.0709750575714188
-0.108912172161399,-0.0967563075714191
-0.0541270159113997,-0.0814486903839206
0.007909116901102,-0.0629184169464194
0.0538319684636017,-0.0766147060089196
0.0248280622136017,-0.071780721633919
-0.0476817034113984,-0.0653354091339201
-0.0186777971613991,-0.10159029194642
0.0232167340886022,-0.0790316981964194
0.0304677106511015,-0.0613070888214201
0.0618886090886017,-0.0637240810089193
0.111839780963602,-0.0943393153839196
0.148900327838603,-0.0782260341339185
0.160179624713601,-0.0596957606964203
0.0409413434636024,-0.0725863856964182
-0.0605723284113977,-0.0637240810089193
-0.106495179973898,-0.0677524013214198
-0.0492930315363974,-0.0645297450714194
0.0812245465886011,-0.07419771382142
0.160179624713602,-0.0709750575714198
0.165013609088602,-0.0613070888214197
0.136009702838601,-0.0717807216339201
0.120702085651101,-0.0637240810089207
-0.0476817034113994,-0.0588900966339205
0.0103261090886012,-0.0927279872589194
-0.00739850028639812,-0.0895053310089195
-0.0613779924738982,-0.0637240810089191
-0.0444590471613993,-0.058084432571421
-0.0710459612238982,-0.0685580653839193
-0.0855479143488976,-0.0645297450714182
-0.162891664348899,-0.06291841694642
-0.124219789348899,-0.0661410731964207
-0.0799082659113985,-0.075809041946419
-0.0476817034113983,-0.0653354091339197
-0.014649476848899,-0.0717807216339202
-0.00337017997389805,-0.0717807216339191
-0.0541270159113991,-0.06855806538392
-0.0621836565363996,-0.0669467372589198
-0.0235117815363994,-0.0838656825714202
0.0828358747136005,-0.07661470600892
0.120702085651101,-0.0508334560089204
0.129564390338601,-0.0564731044464201
0.133592710651101,-0.0677524013214201
0.0554432965886019,-0.0629184169464197
-0.042042054973898,-0.035525838821419
-0.0589610002863992,-0.0653354091339206
0.0433583356511006,-0.0725863856964204
0.120702085651101,-0.0895053310089201
0.126341734088602,-0.0532504481964197
0.0747792340886017,-0.0669467372589198
0.0312733747136019,-0.059695760696419
0.0723622419011015,-0.059695760696419
0.115062437213601,-0.0637240810089205
0.00388079658860111,-0.0677524013214207
-0.0597666643488979,-0.0846713466339196
-0.00578717216139759,-0.0685580653839198
-0.00578717216139794,-0.0556674403839193
-0.00820416434889809,-0.0701693935089201
0.0232167340886018,-0.080643026321419
0.0344960309636018,-0.0621127528839188
0.00388079658860197,-0.0476107997589195
-0.0106211565363983,-0.0741977138214195
0.0304677106511019,-0.0838656825714199
0.0667225934636015,-0.0476107997589197
0.0796132184636015,-0.0766147060089207
0.0747792340886009,-0.0645297450714196
0.028050718463602,-0.0596957606964187
0.00468646065110084,-0.0653354091339208
-0.1081065080989,-0.0709750575714199
-0.116968812786398,-0.0621127528839184
-0.0525156877863982,-0.0677524013214196
0.0183827497136014,-0.0725863856964193
0.0618886090886012,-0.0677524013214209
0.0860585309636023,-0.0613070888214191
0.0651112653386015,-0.0572787685089192
0.00710345283860137,-0.0661410731964193
-0.0774912737238982,-0.0677524013214196
-0.112940492473899,-0.0766147060089198
-0.0146494768488987,-0.065335409133919
0.0602772809636018,-0.0395541591339202
0.0933095075261023,-0.0613070888214188
0.104588804401102,-0.0758090419464205
0.0433583356511018,-0.0645297450714186
0.0151600934636015,-0.0427768153839196
0.0167714215886013,-0.0733920497589197
0.0288563825261013,-0.0758090419464206
0.00549212471360177,-0.0621127528839194
-0.0122324846613998,-0.0741977138214206
-0.0742686174738985,-0.0782260341339194
-0.032374086223898,-0.0790316981964199
0.0473866559636012,-0.0717807216339203
0.104588804401101,-0.05486177632142
0.118285093463602,-0.0725863856964194
0.057054624713602,-0.0758090419464201
-0.0106211565363988,-0.0717807216339201
0.0103261090886009,-0.0580844325714202
0.0344960309636024,-0.0629184169464197
0.0175770856511017,-0.0524447841339195
0.021605405963602,-0.0709750575714199
0.0344960309636018,-0.0629184169464203
0.051414976276102,-0.0580844325714202
0.104588804401102,-0.0677524013214196
0.0739735700261018,-0.0661410731964191
0.0538319684636019,-0.0685580653839186
0.129564390338601,-0.0709750575714209
0.158568296588601,-0.0532504481964196
0.146483335651101,-0.0596957606964197
0.103783140338602,-0.0677524013214203
0.0747792340886015,-0.0661410731964198
0.146483335651101,-0.0427768153839199
0.106200132526101,-0.0645297450714195
0.0433583356511024,-0.0250522060089192
0.094920835651101,-0.0508334560089201
0.129564390338601,-0.059695760696421
0.114256773151102,-0.0766147060089194
0.0634999372136018,-0.0717807216339196
0.0634999372136016,-0.0645297450714199
0.113451109088601,-0.0653354091339201
-0.00337017997389681,-0.0677524013214189
-0.0178721330988987,-0.0774203700714196
0.0820302106511017,-0.0677524013214197
0.0941151715886015,-0.0532504481964195
-0.0331797502863983,-0.0701693935089193
-0.134693422161398,-0.0621127528839188
-0.0944102190363983,-0.0621127528839193
-0.0621836565363984,-0.0548617763214198
-0.047681703411398,-0.0516391200714194
-0.0484873674738985,-0.0685580653839196
-0.0460703752863984,-0.0588900966339193
-0.119385804973897,-0.0613070888214182
-0.116163148723898,-0.05969576069642
-0.0605723284113975,-0.0637240810089191
-0.0347910784113988,-0.0774203700714197
-0.00739850028639746,-0.075003377883919
-0.0235117815363989,-0.0637240810089207
-0.0259287737238994,-0.0733920497589208
-0.0944102190363985,-0.0677524013214197
-0.0927988909113982,-0.0709750575714194
-0.00578717216139825,-0.0532504481964199
-0.0251231096613972,-0.0629184169464194
-0.0235117815363993,-0.0822543544464197
0.00226946846360222,-0.0621127528839186
0.067528257526101,-0.0508334560089199
0.0675282575261024,-0.0661410731964198
0.0707509137761025,-0.0717807216339198
-0.0710459612238985,-0.0661410731964188
-0.111329164348899,-0.0548617763214205
-0.017872133098899,-0.0548617763214216
0.022411070026103,-0.0613070888214198
0.0199940778386019,-0.0605014247589189
-0.0541270159113982,-0.0596957606964194
-0.102466859661398,-0.0693637294464195
-0.124219789348899,-0.0766147060089209
-0.029151429973898,-0.0621127528839196
-0.008204164348899,-0.0629184169464197
-0.079908265911398,-0.0750033778839194
-0.0573496721613978,-0.0580844325714187
-0.026734437786398,-0.05083345600892
0.00146380440110233,-0.0580844325714192
-0.0210947893488992,-0.0588900966339194
-0.0686289690363994,-0.0693637294464208
-0.00900982841139803,-0.0548617763214194
0.0804188825261015,-0.0580844325714198
0.071556577838601,-0.0532504481964198
0.0449696637761014,-0.0661410731964203
0.000658140338601219,-0.0629184169464195
-0.0726572893488978,-0.0548617763214194
-0.147584047161398,-0.0693637294464191
-0.041236390911398,-0.0717807216339197
0.0481923200261014,-0.0580844325714198
-0.0380137346613986,-0.0532504481964208
-0.0468760393488981,-0.05647310444642
0.0103261090886011,-0.0653354091339196
0.00065814033860233,-0.0782260341339191
-0.0509043596613981,-0.0637240810089189
-0.125025453411397,-0.0451938075714192
-0.137110414348899,-0.0532504481964195
-0.180616273723899,-0.0508334560089201
-0.161280336223898,-0.0653354091339196
-0.120191469036399,-0.0556674403839189
-0.106495179973898,-0.0451938075714192
-0.0992442034113986,-0.0661410731964198
-0.141138734661398,-0.0588900966339186
-0.206397523723898,-0.0411654872589203
-0.161280336223898,-0.0532504481964185
-0.132276429973898,-0.058890096633919
-0.102466859661398,-0.0508334560089198
-0.0589610002863985,-0.0459994716339204
-0.0597666643488989,-0.0484164638214195
-0.148389711223898,-0.0661410731964189
-0.102466859661398,-0.0556674403839191
-0.0621836565363988,-0.04358247944642
-0.0436533830988975,-0.0508334560089188
-0.0573496721613986,-0.0637240810089197
-0.0517100237238985,-0.0508334560089201
-0.0903818987238986,-0.0637240810089198
-0.0106211565363997,-0.0419711513214204
-0.0106211565363982,-0.0580844325714196
-0.026734437786398,-0.0508334560089201
-0.083130922161399,-0.0596957606964199
-0.109717836223898,-0.0556674403839191
-0.0509043596613974,-0.0484164638214196
-0.0138438127863973,-0.0661410731964195
0.00307513252610213,-0.05163912007142
-0.0259287737238995,-0.039554159133921
-0.0339854143488987,-0.0516391200714199
-0.00981549247389782,-0.0685580653839185
0.0957264997136017,-0.0468051356964196
0.157762632526102,-0.0508334560089194
0.184349546588602,-0.0709750575714196
0.172264585651101,-0.0645297450714197
0.0562489606511004,-0.0613070888214195
-0.120997133098898,-0.0588900966339193
-0.145167054973898,-0.0468051356964194
-0.0283457659113991,-0.0524447841339194
0.0820302106511014,-0.0645297450714191
0.141649351276101,-0.0508334560089197
0.121507749713601,-0.0419711513214207
-0.0106211565363988,-0.054861776321421
-0.0509043596613989,-0.0580844325714202
-0.0420420549738984,-0.0548617763214197
-0.0331797502863987,-0.0492221278839187
-0.0355967424738989,-0.05889009663392
0.0554432965886022,-0.06533540913392
0.124730405963601,-0.0427768153839198
0.157762632526101,-0.06936372944642
0.100560484088602,-0.0508334560089193
0.0868641950261015,-0.0613070888214193
0.116673765338601,-0.0459994716339192
0.148900327838601,-0.0427768153839193
0.0933095075261017,-0.0500277919464201
-0.0138438127863981,-0.0435824794464184
-0.0670176409113992,-0.0508334560089202
-0.152418031536398,-0.0508334560089192
-0.158057679973898,-0.0564731044464185
-0.0960215471613977,-0.0540561122589195
-0.0476817034113984,-0.0274691981964194
-0.0476817034113983,-0.0484164638214191
-0.0549326799738981,-0.0588900966339189
-0.137916078411399,-0.0411654872589204
-0.138721742473899,-0.04761079975892
-0.0718516252863978,-0.0556674403839195
-0.048487367473899,-0.0629184169464209
-0.0968272112238983,-0.0427768153839201
-0.0766856096613984,-0.0250522060089194
-0.0597666643488987,-0.06372408100892
-0.0613779924738977,-0.076614706008919
-0.0815195940363986,-0.0419711513214195
-0.0106211565363983,-0.0645297450714191
0.0514149762761011,-0.0725863856964203
0.0844472028386021,-0.0588900966339197
0.0506093122136006,-0.0540561122589213
-0.0468760393488979,-0.0717807216339192
-0.0984385393488987,-0.0613070888214203
0.0691395856511012,-0.0451938075714195
0.104588804401102,-0.0532504481964192
0.120702085651101,-0.0629184169464203
0.0216054059636018,-0.0564731044464198
-0.0178721330988981,-0.0766147060089189
0.0159657575261021,-0.0629184169464178
-0.137110414348899,-0.0508334560089204
-0.164502992473897,-0.0451938075714197
-0.029151429973898,-0.0226352138214192
-0.0210947893488984,-0.0508334560089189
-0.0364024065363981,-0.0621127528839185
-0.0629893205988986,-0.0596957606964202
-0.0960215471613991,-0.0621127528839209
-0.0766856096613989,-0.0379428310089195
-0.0452647112238992,-0.0580844325714215
-0.0210947893488981,-0.0677524013214196
-0.0420420549738986,-0.0484164638214186
-0.0879649065363978,-0.0306918544464199
-0.0710459612238981,-0.0766147060089198
-0.032374086223898,-0.0331088466339198
0.0103261090886017,-0.06533540913392
0.0175770856511007,-0.0363315028839199
-0.0339854143488977,-0.0596957606964194
-0.0863535784113976,-0.0846713466339182
-0.0573496721613988,-0.0693637294464203
-0.00900982841139822,-0.0516391200714195
0.0079091169011017,-0.0645297450714191
0.0191884137761012,-0.0846713466339201
0.0232167340886015,-0.0629184169464199
-0.0710459612238978,-0.0290805263214205
-0.0557383440363988,-0.0250522060089191
0.0103261090886018,-0.0766147060089195
0.0925038434636014,-0.10642427632142
0.163402280963603,-0.0323031825714188
0.180321226276102,-0.0250522060089199
0.0578602887761018,-0.0524447841339189
0.0433583356511028,-0.0468051356964183
0.133592710651101,-0.0725863856964201
0.126341734088601,-0.0379428310089199
0.165013609088603,-0.0250522060089197
0.141649351276101,-0.10320162007142
0.171458921588602,-0.10239595600892
0.185155210651101,-0.103201620071419
0.0361073590886016,-0.05163912007142
-0.0589610002863984,-0.0556674403839199
0.0304677106511016,-0.0435824794464197
0.0860585309636009,-0.0459994716339198
0.0320790387761015,-0.0822543544464193
0.00468646065110048,-0.10481294819642
-0.0138438127863976,-0.0363315028839186
-0.0364024065363989,-0.0379428310089197
-0.00417584403639935,-0.0886996669464199
-0.00820416434889808,-0.0532504481964202
-0.0960215471613971,-0.0379428310089189
-0.0855479143488986,-0.0669467372589199
-0.0339854143488983,-0.109646932571419
-0.0154551409113977,-0.0250522060089192
-0.00900982841139829,-0.0572787685089193
-0.0138438127863979,-0.078226034133919
-0.00820416434889813,-0.0685580653839206
-0.0726572893488979,-0.0250522060089183
-0.0903818987238987,-0.0798373622589189
-0.0364024065363978,-0.083865682571419
0.00388079658860241,-0.0919223231964187
-0.0283457659113988,-0.0766147060089196
-0.00820416434889915,-0.0564731044464201
-0.0557383440363987,-0.0532504481964197
-0.044459047161399,-0.0508334560089202
-0.0259287737238985,-0.0919223231964195
-0.00578717216139869,-0.0838656825714204
-0.0122324846613998,-0.0669467372589205
0.0119374372136017,-0.0790316981964199
0.0385243512761009,-0.0758090419464203
-0.0186777971613988,-0.06775240132142
-0.0355967424738979,-0.0725863856964194
-0.0339854143488977,-0.0653354091339199
-0.0549326799738983,-0.0943393153839195
-0.0162608049738988,-0.0645297450714194
0.0546376325261019,-0.0661410731964191
0.121507749713602,-0.0750033778839194
0.113451109088602,-0.0806430263214192
0.0296620465886021,-0.0717807216339195
-0.0154551409113987,-0.07661470600892
-0.0299570940363978,-0.068558065383919
0.00226946846360256,-0.0403598231964203
0.0812245465886018,-0.0339145106964198
0.0949208356511007,-0.0661410731964203
0.0949208356511022,-0.0806430263214197
0.136009702838602,-0.0806430263214189
0.137621030963602,-0.0508334560089195
0.0683339215886024,-0.0459994716339196
0.0908925153386007,-0.0919223231964206
0.0973378278386015,-0.076614706008919
0.123119077838602,-0.0709750575714202
0.0780018903386016,-0.077420370071419
-0.0307627580988982,-0.0653354091339192
-0.0412363909113987,-0.0580844325714206
0.0957264997136019,-0.0637240810089194
0.023216734088602,-0.0339145106964193
0.0328847028386018,-0.0741977138214193
0.0481923200261015,-0.0637240810089202
0.0256337262761014,-0.0886996669464202
0.0699452497136023,-0.0895053310089198
0.0546376325261012,-0.00249361225891916
-0.00981549247389872,-0.0451938075714191
0.0159657575261006,-0.10239595600892
0.0699452497136037,-0.136233846633919
0.0433583356511016,-0.112869588821421
0.0522206403386017,0.0160366611785804
0.0530263044011011,0.0120083408660804
0.008714780963601,-0.0870883388214195
-0.0750742815363978,-0.087088338821419
-0.0887705705988992,-0.10239595600892
-0.0976328752863977,-0.0468051356964193
-0.120191469036398,-0.0161899013214195
-0.195923890911398,-0.0629184169464196
-0.163697328411399,-0.0911166591339201
-0.0654063127863977,-0.0766147060089191
-0.0492930315363984,-0.03955415913392
-0.0388193987238978,-0.0613070888214194
-0.0283457659113979,-0.0605014247589196
-0.0637949846613973,-0.0967563075714199
-0.137916078411397,-0.107229940383919
-0.131470765911399,-0.0935336513214197
-0.118580140911398,-0.0717807216339198
-0.128248109661399,-0.0750033778839205
-0.122608461223899,-0.0766147060089194
-0.115357484661397,-0.0548617763214195
-0.164502992473899,-0.0250522060089208
-0.187061586223898,-0.0371371669464205
-0.137110414348899,-0.0709750575714192
-0.0597666643488996,-0.0790316981964203
-0.0347910784113991,-0.0178012294464208
-0.0283457659113987,0.00153470805357923
0.0216054059636018,-0.0169955653839198
-0.0444590471613982,-0.0564731044464195
-0.136304750286398,-0.0870883388214201
-0.0758799455988981,-0.037942831008919
-0.00739850028639771,0.0394009189910814
0.0143544294011005,0.000729043991079205
0.0232167340886008,-0.12576021382142
0.043358335651102,-0.0298861903839187
0.0119374372136028,0.00153470805358054
0.057860288776101,-0.0121615810089196
0.0385243512761015,-0.0379428310089202
0.0586659528386008,0.0812954502410792
0.0780018903386019,0.0982143955535809
0.0377186872136023,-0.0750033778839193
0.0570546247136014,-0.07822603413392
0.052220640338601,0.0265102939910796
0.0554432965886018,0.0192593174285804
0.00790911690110132,-0.0492221278839202
-0.021094789348899,0.0829067783660801
-0.0194834612238976,0.0257046299285809
0.0103261090886022,-0.0508334560089184
-0.0573496721613982,-0.0250522060089198
-0.124219789348898,0.00878568461608068
-0.228150453411398,0.0265102939910808
-0.152418031536398,-0.0113559169464199
-0.124219789348898,-0.0750033778839201
-0.110523500286399,0.0514858799285795
-0.104078187786399,0.0015347080535798
-0.107300844036397,-0.0967563075714193
-0.158863344036397,-0.0451938075714199
-0.176587953411398,-0.0121615810089199
-0.0774912737238974,0.0337612705535809
-0.043653383098898,0.0265102939910806
-0.0412363909113976,-0.114480916946419
-0.0355967424738973,-0.0766147060089195
-0.0952158830988979,-0.0685580653839187
-0.0960215471613982,-0.0234408778839192
-0.0646006487238979,-0.00732759663391894
0.0135487653386012,-0.0524447841339193
0.0949208356511013,-0.0532504481964198
0.00790911690110211,-0.0725863856964194
-0.0170664690363983,-0.0653354091339195
0.0304677106511012,-0.0685580653839194
0.0546376325261029,-0.0653354091339189
0.0916981794011027,-0.0355258388214185
0.109422788776101,-0.0194125575714201
0.0667225934636012,-0.0532504481964199
0.0465809919011013,-0.0508334560089197
0.133592710651102,-0.0983676356964202
0.199657163776101,-0.0935336513214202
0.142455015338602,-0.071780721633919
0.0393300153386009,-0.0693637294464205
-0.0283457659113974,-0.0621127528839183
-0.00417584403639874,-0.0991732997589196
0.0393300153386017,-0.0766147060089206
0.0514149762761015,-0.0613070888214196
0.0715565778386012,-0.0741977138214203
0.0256337262761024,-0.0758090419464195
0.0232167340886019,-0.0427768153839191
0.035301695026101,-0.0508334560089202
0.0433583356511017,-0.12817720600892
0.0103261090886023,-0.0750033778839202
0.0651112653386016,-0.088699666946419
0.0643056012761007,-0.0766147060089202
0.0353016950261026,-0.0822543544464186
-0.042847719036398,-0.0588900966339198
0.00871478096360163,-0.069363729446419
0.119090757526101,-0.0895053310089197
0.157762632526101,-0.0548617763214195
0.160179624713602,-0.0935336513214193
0.176292905963601,-0.0645297450714205
0.223827085651102,-0.064529745071419
0.250413999713602,-0.0508334560089197
0.198045835651102,-0.0492221278839192
0.1416493512761,-0.0637240810089205
0.158568296588602,-0.0862826747589187
0.177904234088602,-0.0741977138214199
0.172264585651102,-0.0202182216339192
0.169847593463601,-0.0645297450714194
0.189989195026101,-0.0540561122589204
0.126341734088601,-0.0492221278839203
0.0280507184636011,-0.0701693935089207
-0.0170664690363986,-0.0508334560089204
-0.0839365862238992,-0.0621127528839203
-0.100855531536399,-0.0741977138214206
-0.0549326799738985,-0.0508334560089203
-0.00498150809889804,-0.0484164638214194
0.0280507184636018,-0.0903109950714204
-0.00659283622389816,-0.0685580653839196
-0.0646006487238986,-0.0532504481964205
-0.0420420549738985,-0.0387484950714203
0.0119374372136004,-0.05889009663392
0.035301695026101,-0.0298861903839196
0.022411070026102,-0.128177206008919
0.0175770856511022,-0.0613070888214192
-0.0331797502863981,-0.0524447841339192
-0.00659283622389868,-0.0629184169464193
0.0304677106511022,-0.0613070888214192
0.0433583356511012,-0.05808443257142
0.0344960309636018,-0.041971151321419
-0.0476817034113989,-0.0532504481964206
-0.0573496721613985,-0.0661410731964189
-0.0549326799738988,-0.0629184169464205
-0.0339854143488978,-0.0459994716339193
-0.0420420549738979,-0.0242465419464195
-0.102466859661398,-0.0427768153839192
-0.0815195940363989,-0.05002779194642
-0.033985414348897,-0.0379428310089194
-0.00417584403639846,-0.0516391200714191
0.00146380440110023,-0.0500277919464202
-0.0726572893488985,-0.0266635341339188
-0.0976328752863981,-0.0403598231964193
-0.0517100237238977,-0.0653354091339186
-0.00417584403639847,-0.0621127528839201
0.0119374372136017,-0.0629184169464193
-0.0259287737238988,-0.0508334560089203
-0.0082041643488994,-0.0194125575714207
0.094920835651102,-0.0516391200714203
0.101366148151101,-0.0427768153839201
0.0844472028386009,-0.0548617763214206
0.100560484088602,-0.0250522060089187
0.0820302106511025,-0.0194125575714183
-0.00820416434889839,-0.0387484950714194
-0.0339854143488983,-0.065335409133919
0.0320790387761011,-0.0484164638214196
0.0796132184636019,-0.0532504481964189
0.069139585651101,-0.0435824794464209
0.00871478096360163,-0.0540561122589197
0.0514149762761016,-0.0524447841339203
0.0739735700261015,-0.0250522060089207
0.053831968463602,-0.0306918544464197
-0.0243174455988984,-0.0476107997589209
-0.00417584403639977,-0.0524447841339209
0.0554432965886018,-0.0266635341339193
0.0828358747136026,-0.0508334560089193
0.0949208356511018,-0.0435824794464193
0.0949208356511006,-0.0508334560089207
0.0344960309636015,-0.0508334560089205
-0.0444590471613985,-0.0508334560089188
-0.0396250627863975,-0.0427768153839196
-0.0283457659113988,-0.0613070888214192
-0.0412363909113968,-0.0290805263214197
-0.0444590471613983,-0.0435824794464205
-0.0871592424738995,-0.0403598231964204
-0.0525156877863985,-0.0516391200714206
0.0175770856511014,-0.0484164638214197
0.044969663776102,-0.0596957606964201
0.0699452497136023,-0.0605014247589188
-0.00981549247389842,-0.0540561122589193
-0.0283457659113982,-0.0596957606964199
0.0361073590886017,-0.0395541591339197
0.0715565778386015,-0.02021822163392
0.0691395856511018,-0.038748495071419
-0.00820416434889901,-0.0548617763214202
-0.0347910784113991,-0.0484164638214203
-0.0726572893488975,-0.0226352138214193
-0.00981549247389783,-0.0540561122589195
0.0385243512761018,-0.058890096633919
0.0594716169011014,-0.0266635341339194
0.0586659528386009,-0.0492221278839205
-0.00900982841139769,-0.0564731044464188
-0.0597666643488979,-0.0500277919464186
-0.0597666643488972,-0.0508334560089192
-0.0589610002863984,-0.0484164638214192
-0.0420420549738984,-0.0355258388214201
-0.0557383440363982,-0.0419711513214195
-0.111329164348898,-0.0596957606964187
-0.0388193987238992,-0.0266635341339207
-0.0194834612238979,-0.059695760696419
0.00871478096360064,-0.06291841694642
-0.0170664690363984,-0.0387484950714207
-0.0331797502863969,-0.0210238856964185
0.0232167340886016,-0.041165487258919
0.126341734088601,-0.0298861903839195
0.120702085651101,-0.03955415913392
0.055443296588601,-0.0371371669464193
-0.0355967424738965,-0.0758090419464191
-0.0210947893488987,-0.0468051356964201
0.0151600934636021,-0.0403598231964197
0.0256337262761018,-0.0419711513214199
0.032884702838602,-0.0516391200714193
0.0417470075261023,-0.0484164638214184
0.0441639997136014,-0.0806430263214204
0.032884702838601,-0.0306918544464199
0.0312733747136024,-0.0484164638214182
0.0586659528386019,-0.0459994716339197
0.0747792340886014,-0.0371371669464188
0.0933095075261023,-0.0548617763214187
0.0546376325261015,-0.0403598231964193
-0.0251231096613987,-0.0419711513214199
-0.0388193987238977,-0.0508334560089202
-0.00900982841139831,-0.05405611225892
0.0103261090886017,-0.0395541591339202
-0.00256451591139766,-0.0161899013214195
-0.0122324846613983,-0.0226352138214194
-0.0299570940363984,-0.0766147060089198
-0.0444590471613979,-0.0766147060089196
-0.0339854143488985,-0.0113559169464198
-0.0235117815363988,-0.0596957606964199
-0.0122324846613985,-0.0613070888214202
-0.010621156536398,-0.0548617763214198
0.00468646065110089,-0.0419711513214204
-0.0807139299738988,-0.0564731044464196
-0.059766664348899,-0.0403598231964203
-0.0380137346613982,-0.0435824794464189
-0.0347910784113985,-0.0500277919464194
-0.0122324846613986,-0.0250522060089208
-0.00739850028639713,-0.0323031825714189
-0.0468760393488995,-0.0331088466339208
-0.0613779924738982,-0.0492221278839185
-0.0347910784113973,-0.0548617763214195
-0.0106211565363992,-0.0250522060089196
0.0191884137761009,-0.0403598231964201
0.073167905963602,-0.0451938075714188
0.0441639997136012,-0.0508334560089198
0.0175770856511013,-0.0685580653839193
-0.0589610002863981,-0.0750033778839193
0.111034116901102,-0.0621127528839197
0.092503843463602,-0.0532504481964192
0.0643056012761018,-0.0379428310089197
0.0763905622136019,-0.0339145106964192
0.0199940778386026,-0.0451938075714191
-0.018677797161399,-0.0331088466339191
0.0353016950261018,-0.0290805263214203
0.0586659528386007,-0.0516391200714209
0.040135679401102,-0.0387484950714198
-0.021900453411398,-0.0403598231964192
-0.0871592424738981,-0.0814486903839193
-0.193506898723899,-0.0242465419464198
-0.191089906536399,-0.0323031825714186
-0.154029359661399,-0.0323031825714204
-0.118580140911399,-0.0725863856964206
-0.0903818987238987,-0.0596957606964205
-0.0855479143488971,-0.0226352138214199
-0.169336976848899,-0.05566744038392
-0.111329164348898,-0.0459994716339194
-0.104078187786399,-0.02505220600892
-0.123414125286399,-0.0492221278839204
-0.0871592424738981,-0.0500277919464203
-0.0339854143488976,-0.0306918544464192
0.00710345283860241,-0.0516391200714184
0.0248280622136012,-0.0532504481964196
-0.0339854143488968,-0.0508334560089187
-0.0911875627863978,-0.0516391200714193
-0.0976328752863975,-0.0355258388214198
-0.110523500286399,-0.03955415913392
-0.0734629534113982,-0.0508334560089202
-0.0509043596613984,-0.04922212788392
-0.033179750286398,-0.0451938075714202
0.00871478096360121,-0.0500277919464205
0.0175770856511025,-0.0355258388214183
0.0457753278386018,-0.013772909133919
0.0546376325261024,-0.0508334560089192
0.00388079658860154,-0.0967563075714192
0.0127431012761011,-0.0427768153839203
0.0151600934636024,-0.0508334560089199
0.0433583356511021,-0.0621127528839192
0.0216054059636026,-0.0524447841339199
-0.124219789348898,-0.0484164638214193
-0.0807139299738991,-0.0508334560089211
-0.0678233049738984,-0.0451938075714188
-0.0492930315363976,-0.0427768153839191
-0.0210947893488977,-0.0371371669464183
-0.0291514299738977,-0.0750033778839196
-0.105689515911398,-0.0766147060089205
-0.0799082659113983,-0.037942831008919
-0.0476817034113987,-0.0476107997589195
-0.0138438127863985,-0.05083345600892
-0.0331797502863982,-0.0298861903839189
-0.0509043596613976,-0.0621127528839186
-0.0396250627863975,-0.0508334560089184
0.00226946846360123,-0.0468051356964202
0.0175770856511018,-0.0451938075714195
0.0481923200261011,-0.03794283100892
0.0143544294011012,-0.0290805263214205
-0.00900982841139836,-0.0266635341339192
-0.0202891252863998,-0.0613070888214202
-0.0106211565363987,-0.0379428310089201
0.0135487653386009,-0.04197115132142
0.0441639997136011,-0.02344087788392
-0.0138438127863973,-0.0677524013214202
0.0103261090886014,-0.0975619716339199
0.0103261090886019,-0.02344087788392
-0.00256451591139901,-0.0202182216339194
0.0103261090886015,-0.0476107997589196
0.0038807965886012,-0.0508334560089202
-0.0106211565363979,-0.0298861903839199
-0.0541270159113967,-0.0234408778839196
-0.0678233049738983,-0.0564731044464193
-0.0339854143488993,-0.0564731044464204
0.0175770856511013,-0.0194125575714204
0.047386655963601,-0.0403598231964202
0.020799741901102,-0.0685580653839193
0.00226946846360201,-0.0733920497589194
-0.0492930315363981,-0.0508334560089207
-0.0194834612238982,-0.0484164638214189
0.0216054059636015,-0.0419711513214199
0.044163999713602,-0.0741977138214193
0.046580991901102,-0.0339145106964188
0.0344960309636024,-0.00410494038391932
0.102171812213602,-0.0419711513214187
-0.0186777971613988,-0.0379428310089207
-0.0210947893488976,-0.0556674403839195
0.0506093122136018,-0.0508334560089198
0.153734312213601,-0.0371371669464189
0.185155210651101,-0.0355258388214204
0.118285093463602,-0.045193807571418
0.070750913776102,-0.0379428310089201
0.148094663776101,-0.0379428310089195
0.169041929401101,-0.0250522060089201
0.151317320026101,-0.0347201747589205
0.00629778877610178,-0.0298861903839199
-0.0855479143488984,-0.0451938075714198
-0.0275401018488982,-0.0234408778839204
0.0216054059636014,-0.0339145106964199
0.0844472028386005,-0.0363315028839207
0.116673765338602,-0.0459994716339204
0.221410093463601,-0.0476107997589195
0.199657163776101,-0.0194125575714204
0.112645445026103,-0.0395541591339201
0.0844472028386006,-0.0451938075714203
0.126341734088601,-0.0250522060089203
0.172264585651101,-0.0427768153839206
0.154539976276102,-0.0371371669464187
0.146483335651101,-0.0298861903839196
0.127953062213602,-0.0145785731964192
0.118285093463602,-0.0395541591339194
0.111034116901102,-0.0266635341339189
0.0602772809636017,-0.0258578700714198
0.0892811872136022,-0.0403598231964193
0.086058530963602,-0.0476107997589209
0.0554432965886008,0.0112026768035794
0.018382749713602,-0.03713716694642
0.00629778877610143,-0.0524447841339193
0.0844472028386008,-0.0250522060089206
0.0707509137761017,-0.0250522060089203
0.0820302106511028,-0.0113559169464196
-0.00900982841139781,-0.0250522060089202
-0.000953187786397996,-0.0435824794464194
0.0344960309636023,-0.0242465419464196
0.0457753278386017,-0.0194125575714193
0.0433583356511018,-0.0298861903839195
0.0264393903386011,-0.0435824794464212
-0.0331797502863977,-0.0250522060089196
-0.0380137346613982,-0.0161899013214189
0.0175770856511014,-0.03552583882142
0.0449696637761013,-0.0323031825714192
0.0514149762761015,-0.0250522060089192
0.0683339215886022,-0.0468051356964191
0.0425526715886015,-0.0242465419464179
0.0103261090886025,-0.00652193257141948
0.0143544294011022,-0.0113559169464194
0.0272450544011022,-0.0250522060089187
0.0328847028386026,-0.0564731044464188
0.0344960309636024,-0.0105502528839186
0.00468646065110063,-0.00813326069642026
0.028856382526103,-0.0274691981964194
-0.0130381487238988,-0.0379428310089192
0.00146380440110058,-0.0161899013214207
-0.0694346330988985,-0.0451938075714194
-0.109717836223898,-0.0435824794464192
-0.0815195940363978,-0.0210238856964192
-0.111329164348898,-0.0290805263214194
-0.137916078411398,0.00878568461608041
-0.190284242473898,-0.0363315028839192
-0.154029359661398,-0.039554159133919
-0.0944102190363986,-0.0137729091339204
-0.0855479143488983,-0.0331088466339198
-0.105689515911398,-0.0282748622589189
-0.193506898723898,0.000729043991080852
-0.150001039348898,-0.0202182216339193
-0.122608461223898,-0.0459994716339199
-0.0976328752863998,-0.04035982319642
-0.0855479143488978,0.0240933018035797
-0.105689515911399,0.0152309971160792
-0.147584047161399,-0.0129672450714197
-0.137110414348898,-0.0250522060089189
-0.0911875627863976,-0.0113559169464191
-0.0613779924738986,0.0015347080535795
-0.0557383440363995,-0.026663534133921
-0.0807139299738973,-0.0508334560089191
-0.0911875627863986,-0.0258578700714199
-0.0597666643488982,-0.0290805263214189
-0.0581553362238974,-0.0161899013214191
-0.0235117815363993,-0.0169955653839193
0.0417470075261023,-0.0403598231964186
-0.00820416434889885,-0.0468051356964203
0.000658140338601513,-0.00329927632141978
0.0731679059636008,0.045040567428579
0.0457753278386022,-0.0234408778839193
0.00226946846360272,-0.0258578700714205
-0.0299570940363989,-0.0266635341339197
-0.0339854143488979,-0.0371371669464204
-0.0114268205988985,-0.0210238856964195
0.0320790387761014,-0.00813326069641858
0.0667225934636017,-0.01780122944642
0.0941151715886007,-0.0435824794464205
0.108617124713601,0.000729043991079866
0.0522206403386007,0.0128140049285794
0.0481923200261024,-0.0339145106964185
0.0304677106511015,-0.0129672450714209
0.0191884137761018,-0.0137729091339199
0.0103261090886017,-0.0258578700714203
-0.000953187786398302,-0.0274691981964197
-0.0202891252863972,0.000729043991081589
-0.0388193987238982,-0.0250522060089203
-0.108912172161398,-0.0226352138214205
-0.106495179973899,-0.00974458882142055
-0.0388193987238988,-0.02263521382142
0.036107359088602,-0.0516391200714194
-0.0307627580988976,0.0120083408660806
-0.0613779924738983,-0.0113559169464199
-0.0662119768488981,-0.0274691981964193
-0.0766856096613989,-0.0363315028839197
-0.113746156536398,-0.0210238856964199
-0.0686289690363979,0.0055630283660808
-0.0597666643488986,-0.0242465419464194
-0.0412363909113977,-0.0290805263214187
-0.0186777971613986,-0.0169955653839195
-0.00820416434889925,-0.02505220600892
-0.042042054973898,-0.0258578700714193
-0.0339854143488984,-0.0234408778839203
-0.0339854143488977,-0.0169955653839193
0.000658140338601382,-0.0242465419464201
0.0409413434636017,-0.0250522060089197
0.104588804401101,-0.0250522060089194
0.150511655963601,-0.0234408778839203
0.119896421588602,-0.0113559169464191
0.0667225934636016,-0.0169955653839193
0.129564390338603,-0.0339145106964187
0.165013609088603,-0.0258578700714189
0.0836415387761012,-0.0202182216339198
0.0699452497136009,0.000729043991079203
0.0828358747136012,-7.66200714196256e-05
0.100560484088602,-0.02505220600892
0.128758726276101,-0.0339145106964199
0.0433583356511015,-0.0266635341339195
-0.0549326799738991,-0.0073275966339202
0.0264393903386009,-0.0234408778839204
0.0876698590886035,-0.0234408778839196
0.0691395856511024,-0.00974458882141929
0.0812245465886021,-0.0105502528839196
0.103783140338602,-0.00168794819642002
-0.0251231096613985,-0.00813326069642038
-0.0855479143488985,-0.025052206008918
-0.150001039348898,-0.0234408778839195
-0.123414125286399,-0.0121615810089207
-0.0210947893488991,-0.0137729091339206
0.0071034528386008,-0.0298861903839198
0.0852528669011017,-0.0169955653839187
0.0538319684636017,-0.00813326069641956
-0.0879649065363978,-7.66200714199369e-05
-0.0718516252863984,-0.00974458882141948
-0.0573496721613969,0.000729043991080451
-0.0557383440363974,-0.00732759663391987
-0.148389711223898,-0.00974458882141864
-0.0871592424738982,-0.0331088466339191
-0.0823252580988989,0.00153470805358037
-0.0500986955988988,-0.0145785731964205
-0.0210947893488978,-0.0129672450714189
-0.0202891252863983,0.0394009189910806
-0.0944102190363987,0.00314603617857991
-0.0815195940363985,-0.0049106044464201
-0.0283457659113989,-0.0250522060089198
0.0433583356511028,-0.00732759663392007
0.0836415387761022,0.0257046299285807
0.0949208356511012,-0.0121615810089199
0.0699452497136019,-0.00249361225891898
0.0377186872136025,0.00959134867858061
0.0546376325261014,0.00556302836607987
0.0304677106511019,0.0120083408660804
0.00629778877610204,0.00556302836608016
-0.00820416434889779,-0.00088228413391997
-0.00578717216139801,-0.0105502528839194
-0.0315684221613988,0.0144253330535799
-0.0202891252863987,-0.00813326069641956
0.0135487653386022,-0.0145785731964194
0.0433583356511018,0.0144253330535799
0.120702085651101,0.0361782627410804
0.151317320026101,-0.0218295497589201
0.0949208356511017,-0.00652193257141868
0.0248280622136027,-0.0226352138214193
-0.0380137346613988,0.0265102939910802
-0.0597666643488982,0.0265102939910807
-0.0549326799738992,-0.00410494038392044
-0.0589610002863987,-0.0234408778839206
-0.0299570940363993,-0.00168794819641991
-0.0750742815363979,0.0273159580535802
-0.0871592424738973,0.0289272861785802
-0.0597666643488992,0.0112026768035793
-0.0299570940363983,-0.00329927632142103
-0.0202891252863978,0.00636869242858085
0.00388079658860215,0.0216763096160805
0.00710345283860113,-0.0210238856964201
0.0054921247136021,-7.66200714196645e-05
0.0836415387761004,0.00475736430357924
0.168236265338602,-7.66200714192028e-05
0.203685484088601,-0.00813326069642044
0.203685484088602,0.0184536533660798
0.142455015338601,0.0232876377410804
0.129564390338601,0.000729043991079834
0.147288999713602,-0.0323031825714184
0.0433583356511009,-0.02102388569642
0.0320790387761018,-0.00732759663392028
0.0780018903386034,0.00959134867858118
0.115062437213601,-0.01216158100892
0.0634999372136011,0.016036661178581
0.0900868512761022,0.0144253330535816
0.0506093122136019,0.0176479893035804
0.0514149762761019,-0.019412557571419
-0.0807139299738983,-0.0387484950714209
0.00871478096360105,-0.0129672450714202
0.0441639997136007,0.0136196689910792
0.0812245465886009,-0.0169955653839198
0.0538319684636027,-0.0032992763214193
-0.0589610002863981,0.00556302836608065
-0.152418031536398,-0.0137729091339197
-0.155640687786398,0.0136196689910805
-0.163697328411399,0.0265102939910803
-0.145167054973898,-0.00410494038391954
-0.124219789348899,-0.0210238856964202
-0.111329164348898,-0.0323031825714195
-0.133887758098898,-0.00168794819642043
-0.183838929973898,-0.0250522060089192
-0.0992442034113984,-0.0290805263214195
-0.0436533830988979,0.00878568461608122
-0.0170664690363986,-0.00168794819642026
-0.0444590471613986,-0.00168794819642019
-0.0726572893488984,0.0402065830535811
-0.0734629534113979,0.0136196689910802
0.0135487653386015,-0.0169955653839194
0.111839780963602,-0.050833456008919
0.172264585651102,-0.0427768153839197
0.167430601276102,0.000729043991080448
0.102977476276102,-0.01457857319642
0.082030210651101,-0.020218221633921
0.0457753278386016,0.0353725986785804
0.0836415387761021,0.0522915439910802
0.106200132526101,-0.00168794819642043
0.1698475934636,-0.0113559169464197
0.148094663776102,-0.0451938075714194
0.125536070026102,0.0128140049285821
0.125536070026101,-7.66200714195159e-05
0.0731679059636018,0.0522915439910803
0.0119374372136016,-0.0741977138214195
0.0304677106511023,-0.0508334560089201
0.0763905622136009,0.00314603617857963
0.0304677106511004,-0.00813326069642028
-0.1121348284114,0.0402065830535792
-0.112134828411399,0.0442349033660802
-0.122608461223898,-0.0129672450714204
-0.137110414348899,-0.0282748622589204
-0.124219789348899,-0.000882284133920036
-0.0589610002863986,0.0128140049285794
-0.0621836565363987,-0.00813326069641985
-0.0621836565363987,-0.02505220600892
-0.0927988909113976,-7.66200714183484e-05
-0.116163148723898,0.00556302836608027
-0.0960215471613984,0.0305386143035794
-0.060572328411398,0.00234037211608042
-0.044459047161399,0.00556302836607955
-0.0412363909113988,-0.0363315028839194
-0.100049867473899,-7.66200714203809e-05
-0.0380137346613987,-0.0339145106964194
-0.00578717216139822,0.0216763096160805
0.0570546247136003,-0.0242465419464204
0.0780018903386016,-0.0459994716339194
-0.00659283622389698,0.00072904399108108
0.0264393903386012,-0.12656587788392
0.0554432965886021,-0.0306918544464206
0.0828358747136023,-0.0169955653839192
0.0957264997136027,-0.0194125575714203
0.0812245465886022,-0.0403598231964203
0.00549212471360217,-0.0250522060089194
-0.0098154924738974,-0.012967245071419
-0.0944102190363986,-0.0451938075714197
-0.0831309221613983,-0.0250522060089199
-0.0339854143488982,0.0377895908660799
-0.000953187786397602,0.0297329502410811
-0.0106211565363976,0.00878568461608058
-0.0106211565363994,-0.0202182216339198
-0.00578717216139753,-0.00813326069642014
-0.0412363909113986,0.0095913486785798
-0.0750742815363986,-0.0580844325714202
-0.0420420549738981,-0.0355258388214199
0.00388079658860088,0.0265102939910797
-0.0219004534113979,0.0176479893035806
-0.0283457659113989,-0.0580844325714206
-0.0210947893488984,-0.0379428310089199
-0.0492930315363978,-0.0323031825714193
-0.0476817034113971,-7.66200714189003e-05
-0.0106211565363984,-0.00410494038392043
-0.000147523723898011,-0.0548617763214197
0.0925038434636019,0.0434292393035808
0.163402280963602,0.0281216221160796
0.137621030963602,-0.0419711513214201
0.0554432965886015,-0.0105502528839204
0.00549212471360077,-0.0274691981964201
0.00549212471360102,-0.0169955653839197
-0.0799082659113979,-0.0178012294464194
-0.0863535784113976,-0.0379428310089194
-0.0726572893488987,-0.0508334560089192
-0.0364024065363986,-0.0210238856964194
-0.0629893205988988,-0.0468051356964199
0.0836415387761024,-0.0427768153839186
0.0788075544011009,-0.0379428310089204
0.0465809919011023,-0.056473104446419
0.119090757526101,-0.0178012294464204
0.0949208356511009,0.0152309971160793
0.0183827497136009,-0.0331088466339199
0.00629778877610159,-0.0540561122589198
0.0957264997136012,-0.0693637294464212
0.160985288776101,0.0192593174285798
0.1005604840886,0.000729043991079743
0.0973378278386015,-0.0226352138214201
0.0280507184636018,-0.0645297450714188
0.0353016950261023,-0.0347201747589204
0.086864195026102,-0.020218221633919
0.163402280963603,0.0224819736785814
0.158568296588603,-0.0258578700714195
0.0409413434636021,-0.0274691981964193
0.0296620465886011,-0.0298861903839205
0.147288999713601,0.0055630283660796
0.130370054401101,-0.0508334560089205
-0.00498150809889859,-0.0339145106964198
-0.0895762346613982,0.00878568461608142
-0.118580140911398,-0.0323031825714196
-0.136304750286398,-0.0588900966339196
-0.0509043596613976,-0.0250522060089193
0.0207997419011008,0.00314603617857964
0.0691395856511012,-0.0371371669464196
0.00226946846360141,-0.0339145106964198
-0.111329164348898,-0.00732759663391966
-0.197535219036398,-0.0548617763214204
-0.060572328411399,-0.0653354091339199
0.0183827497136021,-7.66200714193107e-05
0.015965757526101,0.0216763096160804
-0.116163148723898,-0.0161899013214187
-0.183033265911399,-0.0202182216339203
-0.2378184221614,0.0128140049285799
-0.166919984661398,-0.0548617763214203
-0.150001039348899,-0.0459994716339207
-0.140333070598898,-0.00249361225891973
-0.180616273723899,-0.0194125575714196
-0.179810609661399,-0.0234408778839207
-0.200757875286399,0.000729043991080042
-0.157252015911398,-0.0178012294464186
-0.129053773723899,-0.0911166591339202
-0.102466859661398,0.0257046299285796
-0.0895762346613974,0.00314603617858045
-0.0823252580988968,-0.025857870071419
-0.0750742815363983,-0.0041049403839195
-0.0766856096613984,-0.0178012294464195
-0.135499086223899,-0.0298861903839204
-0.118580140911399,-0.050833456008921
-0.0670176409113987,-0.0516391200714204
0.0175770856511008,0.0265102939910796
0.0618886090886015,0.0273159580535805
0.0691395856511021,-0.0137729091339197
0.0304677106511017,-0.0484164638214199
-0.0267344377863986,0.0160366611785806
-0.0597666643488994,-0.0298861903839202
-0.0734629534113992,-0.07419771382142
-0.0605723284113983,-0.0113559169464204
-0.0541270159113979,0.0071743564910804
-0.0420420549738977,-0.0129672450714195
-0.0670176409113984,-0.0451938075714195
-0.108912172161399,-0.0347201747589214
-0.0541270159113973,0.013619668991081
0.069139585651101,0.0128140049285793
0.146483335651102,-0.0355258388214198
0.108617124713602,-0.021829549758919
0.113451109088602,-0.0041049403839197
0.123119077838601,-0.0242465419464193
0.045775327838602,-0.0766147060089201
-0.0597666643488976,-0.0258578700714191
0.0578602887761007,0.0305386143035795
0.139232359088602,-0.00410494038391954
0.146483335651101,-0.00732759663392005
0.055443296588601,-0.01135591694642
-0.0412363909113984,0.0103970127410803
-0.0807139299738982,-0.0379428310089194
-0.0782969377863985,0.00556302836608007
-0.0154551409113987,0.00314603617857975
-0.062989320598898,-0.0250522060089192
-0.00900982841139881,-0.00410494038391938
0.00710345283860205,0.0144253330535812
0.116673765338601,0.00475736430358075
0.173070249713601,-0.03874849507142
0.195628843463601,-0.0443881435089196
0.148094663776103,-0.00329927632141898
0.135204038776102,-0.00732759663391933
0.155345640338602,-0.0411654872589187
0.146483335651103,0.00153470805358085
0.173070249713601,-0.0242465419464197
0.107811460651101,-0.03391451069642
-0.022706117473898,-0.0121615810089186
0.0320790387761013,0.000729043991080416
0.0804188825261012,-0.0161899013214196
0.146483335651102,-0.0202182216339195
0.121507749713601,-0.0113559169464209
0.0820302106511013,-0.00732759663392099
0.0683339215886011,-0.00329927632142011
0.113451109088602,-0.0363315028839185
0.107811460651103,-0.0137729091339195
0.0949208356511012,-0.0250522060089197
0.0981434919011006,-0.0435824794464196
-0.021094789348898,-0.0194125575714188
-0.0936045549738981,-0.0113559169464192
-0.0992442034113983,-0.0363315028839188
-0.0678233049738992,-0.0210238856964205
-0.0718516252863986,-0.0250522060089199
-0.0597666643488981,0.0345669346160807
-0.0766856096613989,-0.0161899013214198
-0.072657289348898,-0.0468051356964191
-0.0444590471613986,-0.00329927632142048
-0.0364024065363979,0.00959134867858059
0.0538319684636018,-0.0113559169464199
0.129564390338601,-0.0258578700714203
0.136009702838602,-0.0363315028839189
-0.0307627580988979,-0.01941255757142
-0.113746156536399,-0.0379428310089204
-0.0855479143488982,-0.0242465419464194
-0.043653383098898,-0.0105502528839196
-0.0468760393488997,-0.0323031825714202
-0.0243174455988983,-0.0250522060089194
-0.0235117815363988,-0.02908052632142
-0.0549326799738984,-0.0129672450714202
-0.0726572893488984,-0.00410494038392029
0.0046864606511019,-0.0234408778839189
0.0586659528386016,-0.0395541591339196
0.0852528669011013,0.00959134867858119
0.0691395856511006,-0.0306918544464201
0.067528257526102,-0.0379428310089198
0.0433583356511022,-0.0226352138214191
0.0304677106511015,-0.0145785731964197
0.071556577838601,-0.0129672450714201
0.0522206403386021,-0.0178012294464196
0.0473866559636012,-0.0395541591339199
0.0860585309636015,-0.00974458882142026
0.0224110700261013,-0.0105502528839184
-0.0283457659113986,-0.0387484950714188
-0.0976328752863975,-0.033914510696419
-0.301465883098898,-0.0129672450714195
-0.419092836223899,-7.66200714203916e-05
-0.479517640911398,-0.0266635341339197
-0.540748109661397,-0.0621127528839183
-0.549610414348897,-0.0290805263214196
-0.498047914348898,-0.00410494038392035
-0.418287172161399,-0.01135591694642
-0.336915101848899,-0.0210238856964204
-0.315967836223899,0.0176479893035801
-0.329664125286399,-0.0161899013214199
-0.419898500286397,-0.0492221278839187
-0.433594789348898,-0.0363315028839201
-0.377198304973898,-0.00813326069641937
-0.317579164348898,-0.0242465419464197
-0.242652406536399,-0.0129672450714198
-0.214454164348899,0.00234037211607994
-0.249097719036398,0.000729043991080515
-0.308716859661399,-0.0331088466339192
-0.311939515911399,-0.0782260341339199
-0.278101625286398,-0.0895053310089199
-0.207203187786398,-0.00491060444642047
-0.154835023723899,0.0667934971160803
-0.216871156536398,-0.0250522060089195
-0.273267640911399,-0.0379428310089204
-0.274073304973898,-0.00974458882142019
-0.242652406536398,-0.0113559169464193
-0.197535219036398,-0.0451938075714188
-0.171753969036398,-0.0282748622589196
-0.214454164348899,-0.01941255757142
-0.199952211223898,-0.0250522060089188
-0.163697328411397,-0.0339145106964193
-0.137110414348898,-0.0556674403839187
-0.121802797161398,-0.0605014247589195
-0.115357484661398,-0.0258578700714204
-0.160474672161398,0.00314603617858065
-0.148389711223899,0.0031460361785798
-0.107300844036398,-0.0339145106964208
0.00710345283860234,0.0079800205535808
0.0691395856511023,0.0466518955535807
0.0820302106511017,-0.0306918544464202
-0.00820416434889882,-0.0596957606964201
-0.196729554973898,-0.0202182216339202
-0.187867250286398,0.01764798930358
-0.124219789348898,-0.0613070888214198
-0.111329164348899,-0.0645297450714194
-0.104078187786398,-0.00974458882141875
-0.0774912737238982,-7.66200714193373e-05
-0.094410219036399,-0.0516391200714193
-0.0750742815363981,-0.039554159133919
-0.114551820598897,0.0192593174285802
-0.111329164348898,-0.0016879481964199
-0.0500986955988986,-0.0468051356964189
-0.0388193987238989,-0.0266635341339201
-0.0420420549738977,-0.0105502528839197
-0.0202891252863979,-0.0355258388214202
0.0159657575261021,-0.0484164638214183
0.0570546247136012,0.00314603617858072
0.0361073590886018,-0.0411654872589195
-0.0283457659113986,-0.0451938075714187
0.0489979840886023,-0.0290805263214185
0.0699452497136016,-0.0226352138214201
0.038524351276102,-0.0822543544464191
0.0691395856511011,-0.08064302632142
0.0828358747136008,-0.051639120071421
0.119896421588602,-0.04761079975892
0.1198964215886,-0.0419711513214204
0.207713804401101,-0.0379428310089204
0.145677671588601,-0.0814486903839197
0.136815366901102,-0.0323031825714191
0.0780018903386022,-0.0339145106964192
-0.0082041643488983,-0.0451938075714193
-0.0581553362238998,-0.0387484950714206
-0.0573496721613988,-0.0790316981964197
-0.0629893205988984,-0.0725863856964201
-0.106495179973899,-0.0451938075714198
-0.0911875627863988,-0.0750033778839203
-0.0686289690363984,-0.0387484950714193
-0.0476817034113987,-0.0459994716339193
-0.00659283622389912,-0.0484164638214193
0.0908925153386017,-0.0613070888214203
0.137621030963602,-0.0548617763214192
0.105394468463601,-0.0258578700714195
0.0618886090886007,-0.037942831008921
-0.0323740862238985,-0.0677524013214187
-0.0444590471613981,-0.0895053310089186
-0.0549326799738995,-0.0371371669464209
-0.071851625286398,-0.0451938075714188
-0.0855479143488995,-0.0790316981964208
-0.0637949846613978,0.00556302836608074
-0.0597666643488993,-0.0443881435089202
-0.0355967424738997,-0.0403598231964207
-0.0267344377863978,-0.0492221278839185
-0.0339854143488984,-0.0637240810089202
-0.0670176409113988,-0.0339145106964201
-0.0202891252863982,-0.0484164638214202
-0.00337017997389855,-0.0282748622589191
0.0312733747136006,-0.10078462788392
0.1376210309636,-0.0387484950714207
0.0578602887761021,-0.0371371669464189
0.0530263044011019,-0.0500277919464185
-0.0219004534113979,-0.0613070888214187
-0.0267344377863982,-0.0508334560089197
0.0135487653386009,-0.0145785731964202
0.039330015338602,-0.0459994716339186
0.0473866559636009,-0.0766147060089198
0.0651112653386026,-0.0492221278839192
0.0667225934636016,-0.058084432571419
0.0538319684636006,-0.0548617763214204
-0.00900982841139786,-0.0588900966339186
0.0175770856511013,-0.04197115132142
0.0570546247136027,0.000729043991080786
0.0860585309636007,-0.0468051356964207
0.0747792340886016,-0.05002779194642
0.0514149762761014,-0.0492221278839201
0.00226946846360203,-0.0451938075714193
-0.0170664690363982,-0.05405611225892
0.00629778877610141,-0.0653354091339201
-0.0057871721613981,-0.0790316981964194
0.0127431012761028,-0.0339145106964184
0.0264393903386019,-0.0323031825714191
0.00388079658860222,-0.0524447841339198
0.232689390338601,-0.0419711513214205
0.359984312213601,-0.0750033778839206
0.357567320026102,-0.0484164638214189
0.336620054401101,-0.03230318257142
0.369652280963601,-0.0161899013214201
0.376903257526101,-0.0419711513214198
0.395433530963603,-0.0508334560089193
0.3809315778386,-0.0306918544464208
0.311644468463602,-0.0524447841339181
0.293114195026102,-0.0806430263214199
0.329369077838602,-0.0758090419464202
0.339842710651102,-0.0169955653839193
0.361595640338601,-0.0677524013214204
0.332591734088602,-0.0451938075714199
0.271361265338602,-0.0613070888214197
0.259276304401102,-0.0814486903839198
0.268138609088601,0.00153470805358078
0.275389585651103,-0.0097445888214196
0.284251890338601,-0.0524447841339211
0.271361265338602,-0.0701693935089191
0.266527280963602,-0.049222127883919
0.225438413776101,-0.0323031825714199
0.243968687213602,-0.0427768153839188
0.164207945026102,-0.0290805263214193
0.145677671588602,-0.00652193257142018
0.163402280963601,-0.0387484950714204
0.192406187213601,-0.0451938075714198
0.235912046588602,0.000729043991080942
0.190794859088602,-0.0629184169464198
0.189989195026102,-0.05889009663392
0.150511655963601,-0.0766147060089187
0.126341734088603,-0.0202182216339187
0.0618886090886009,-0.03794283100892
0.111839780963602,-0.0451938075714201
0.132787046588602,-0.0621127528839192
0.146483335651101,-0.0218295497589197
0.119896421588601,-0.00732759663392103
0.132787046588602,-0.0379428310089194
0.134398374713602,-0.0782260341339204
0.130370054401102,-0.0637240810089202
0.133592710651101,0.0289272861785795
0.116673765338601,-0.0403598231964201
0.0997548200261014,-0.0725863856964196
0.120702085651102,-0.0371371669464199
0.134398374713602,-0.0556674403839197
0.137621030963601,-0.0508334560089204
0.121507749713601,-0.01780122944642
0.0425526715886024,-0.0419711513214185
0.0546376325261027,-0.039554159133919
0.0884755231511006,-0.0516391200714206
0.0941151715886013,-0.0403598231964192
0.0602772809636013,-0.0266635341339208
0.0683339215886005,-0.0274691981964212
0.0860585309636024,-0.0250522060089192
0.148900327838601,-0.00329927632141907
-0.023511781536398,-0.0178012294464193
-0.0718516252863984,-0.0500277919464202
-0.0339854143488982,-0.0339145106964203
0.0054921247136008,-0.0250522060089207
0.00952044502610154,-0.0379428310089205
0.0119374372136009,-0.0532504481964196
0.0981434919011025,-0.0524447841339204
0.159373960651103,-0.0476107997589194
0.166624937213602,-0.0451938075714195
0.138426695026102,-0.0258578700714199
0.108617124713601,-0.0347201747589201
0.155345640338601,-0.0548617763214201
0.119090757526102,-0.0355258388214186
0.105394468463602,-0.0331088466339192
0.111839780963602,-0.0323031825714192
0.0046864606511022,-0.0516391200714192
-0.100855531536399,-0.0508334560089202
-0.139527406536398,-0.0306918544464198
-0.145167054973899,-0.0532504481964204
-0.118580140911398,-0.0395541591339182
-0.0879649065363995,-0.0411654872589194
-0.0702402971613987,-0.0266635341339204
-0.0871592424738981,-0.0516391200714202
-0.0960215471613985,-0.0323031825714197
-0.146778383098898,-0.0419711513214198
-0.128248109661399,-0.030691854446421
-0.0807139299738976,-0.0355258388214197
-0.0621836565363982,-0.0371371669464197
-0.0549326799738985,-0.0323031825714195
-0.0396250627863977,-0.0403598231964198
-0.074268617473898,-0.04035982319642
-0.110523500286398,-0.0468051356964199
-0.0670176409113981,-0.0524447841339193
-0.0420420549738988,-0.0250522060089201
-0.0428477190363985,-0.0178012294464203
