0.229391294608083,-0.461709222618059
0.269674497733082,-0.50521508199306
0.228585630545583,-0.496352777305558
0.218111997733082,-0.50682641011806
0.229391294608083,-0.489101800743059
0.272091489920582,-0.515688714805559
0.267257505545583,-0.504409417930558
0.283370786795582,-0.535024652305559
0.246310239920583,-0.539052972618058
0.283370786795582,-0.492324456993059
0.257589536795583,-0.503603753868058
0.297872739920582,-0.460097894493059
0.292233091483083,-0.496352777305558
0.296261411795582,-0.49876976949306
0.276925474295584,-0.497158441368058
0.279342466483082,-0.504409417930559
0.280953794608083,-0.500381097618058
0.385690122733083,-0.495547113243059
0.293844419608083,-0.506826410118058
0.292233091483082,-0.513271722618059
0.251949888358083,-0.502798089805558
0.321236997733083,-0.505215081993059
0.334933286795583,-0.501186761680559
0.300289732108083,-0.495547113243059
0.310763364920583,-0.491518792930559
0.320431333670582,-0.51407738668056
0.297067075858083,-0.483462152305558
0.320431333670582,-0.50521508199306
0.303512388358083,-0.518911371055559
0.366354185233082,-0.49957543355556
0.347018247733083,-0.493935785118059
0.378439146170582,-0.490713128868059
0.363131528983083,-0.505215081993059
0.355074888358082,-0.504409417930559
0.347823911795583,-0.501186761680558
0.345406919608083,-0.501992425743059
0.300289732108083,-0.543081292930558
0.350240903983082,-0.492324456993059
0.338961607108083,-0.490713128868058
0.363131528983082,-0.501992425743059
0.392941099295583,-0.497158441368059
0.424361997733082,-0.482656488243059
0.380050474295583,-0.491518792930559
0.400997739920583,-0.498769769493059
0.376827818045583,-0.491518792930559
0.403414732108082,-0.49876976949306
0.371188169608083,-0.495547113243058
0.388107114920582,-0.495547113243059
0.389718443045583,-0.490713128868058
0.392941099295582,-0.499575433555559
0.375216489920583,-0.503603753868058
0.400997739920582,-0.489907464805559
0.386495786795583,-0.504409417930558
0.426778989920582,-0.495547113243059
0.409054380545583,-0.509243402305559
0.444503599295583,-0.504409417930559
0.411471372733083,-0.491518792930559
0.447726255545582,-0.493935785118059
0.371188169608083,-0.508437738243058
0.338155943045582,-0.496352777305559
0.305123716483084,-0.503603753868058
0.286593443045582,-0.524551019493059
0.277731138358083,-0.503603753868058
0.297872739920582,-0.485879144493059
0.247115903983087,-0.493130121055556
0.297872739920587,-0.509243402305556
0.298678403983086,-0.517300042930556
0.300289732108088,-0.506826410118056
0.246310239920586,-0.491518792930556
0.280953794608087,-0.498769769493056
0.286593443045586,-0.503603753868056
0.347823911795587,-0.493130121055556
0.347018247733086,-0.494741449180556
0.324459653983087,-0.508437738243056
0.284982114920587,-0.504409417930556
0.260812193045587,-0.513271722618056
0.210055357108086,-0.500381097618056
0.241476255545587,-0.504409417930557
0.231808286795587,-0.495547113243056
0.233419614920587,-0.590615472618056
0.222140318045587,-0.505215081993056
0.290621763358087,-0.527773675743056
0.250338560233086,-0.509243402305556
0.254366880545587,-0.516494378868056
0.268063169608086,-0.501186761680556
0.283370786795587,-0.513271722618056
0.283370786795587,-0.496352777305556
0.328487974295587,-0.509243402305556
0.292233091483086,-0.497158441368056
0.329293638358088,-0.511660394493056
0.214889341483087,-0.504409417930556
0.323653989920588,-0.514883050743056
0.308346372733086,-0.505215081993056
0.314791685233087,-0.506826410118056
0.287399107108086,-0.505215081993056
0.323653989920587,-0.511660394493056
0.289816099295586,-0.506826410118056
0.310763364920587,-0.508437738243056
0.338961607108086,-0.509243402305556
0.349435239920588,-0.515688714805556
0.273702818045587,-0.507632074180556
0.292233091483087,-0.505215081993056
0.272091489920586,-0.504409417930556
0.290621763358087,-0.513271722618056
0.283370786795586,-0.511660394493056
0.332516294608086,-0.517300042930556
0.316403013358086,-0.500381097618056
0.326876646170587,-0.499575433555556
0.343795591483087,-0.504409417930556
0.347823911795587,-0.513271722618057
0.305123716483087,-0.518105706993056
0.323653989920587,-0.501992425743056
0.338961607108086,-0.493935785118056
0.336544614920587,-0.504409417930556
0.325265318045586,-0.530996331993056
0.361520200858087,-0.517300042930556
0.359908872733087,-0.502798089805556
0.357491880545588,-0.506020746055556
0.347018247733086,-0.499575433555556
0.379244810233087,-0.511660394493056
0.373605161795587,-0.505215081993056
0.398580747733088,-0.504409417930556
0.361520200858087,-0.508437738243056
0.330904966483087,-0.511660394493056
0.286593443045587,-0.507632074180556
0.297872739920587,-0.509243402305556
0.277731138358086,-0.517300042930556
0.348629575858087,-0.518105706993056
0.280148130545587,-0.516494378868056
0.361520200858088,-0.510049066368056
0.345406919608087,-0.502798089805556
0.374410825858088,-0.505215081993056
0.373605161795587,-0.504409417930556
0.400997739920587,-0.520522699180556
0.306735044608086,-0.515688714805557
0.348629575858087,-0.513271722618056
0.326070982108086,-0.516494378868056
0.400997739920587,-0.514883050743056
0.349435239920586,-0.517300042930556
0.400192075858087,-0.514883050743056
0.319625669608086,-0.511660394493056
0.338155943045587,-0.519717035118056
0.338155943045587,-0.516494378868056
0.340572935233087,-0.517300042930556
0.296261411795587,-0.513271722618056
0.293038755545587,-0.514883050743056
0.340572935233087,-0.506020746055556
0.315597349295587,-0.509243402305556
0.259200864920587,-0.517300042930556
0.266451841483087,-0.500381097618056
0.258395200858086,-0.505215081993056
0.264034849295587,-0.517300042930556
0.276119810233086,-0.508437738243056
0.247921568045587,-0.506826410118056
0.251949888358087,-0.498769769493056
0.256783872733088,-0.489907464805556
0.254366880545586,-0.502798089805556
0.297872739920587,-0.512466058555556
0.277731138358086,-0.497158441368056
0.297872739920587,-0.505215081993056
0.285787778983086,-0.501186761680556
0.284176450858088,-0.510049066368056
0.233419614920586,-0.495547113243056
0.245504575858088,-0.508437738243056
0.276119810233087,-0.506826410118056
0.301901060233087,-0.497158441368056
0.325265318045587,-0.497158441368056
0.325265318045587,-0.502798089805556
0.323653989920587,-0.464126214805556
0.345406919608087,-0.501186761680556
0.329293638358087,-0.489907464805556
0.329293638358087,-0.495547113243056
0.383273130545587,-0.487490472618056
0.355074888358087,-0.504409417930556
0.346212583670587,-0.478628167930556
0.347018247733087,-0.512466058555556
0.321236997733087,-0.504409417930556
0.300289732108087,-0.503603753868056
0.309152036795587,-0.509243402305555
0.284982114920588,-0.506826410118056
0.250338560233087,-0.496352777305556
0.280953794608088,-0.511660394493056
0.261617857108086,-0.460903558555556
0.268063169608088,-0.505215081993056
0.303512388358087,-0.499575433555556
0.308346372733088,-0.508437738243056
0.274508482108086,-0.508437738243056
0.272091489920587,-0.504409417930556
0.258395200858087,-0.504409417930556
0.272897153983087,-0.506020746055556
0.241476255545586,-0.509243402305556
0.251144224295587,-0.506826410118056
0.247115903983086,-0.495547113243057
0.264034849295587,-0.506020746055556
0.289816099295586,-0.500381097618056
0.255172544608088,-0.501992425743056
0.234225278983087,-0.485879144493056
0.221334653983087,-0.490713128868056
0.210055357108086,-0.501992425743056
0.189108091483087,-0.510049066368056
0.168966489920586,-0.506826410118057
0.181857114920587,-0.505215081993056
0.181051450858086,-0.496352777305556
0.210055357108087,-0.497158441368055
0.205221372733087,-0.508437738243056
0.220528989920587,-0.496352777305556
0.197164732108087,-0.493935785118056
0.184274107108088,-0.502798089805555
0.193136411795586,-0.501992425743056
0.206832700858087,-0.506020746055556
0.231808286795587,-0.506020746055556
0.206832700858087,-0.505215081993056
0.228585630545588,-0.511660394493056
0.198776060233088,-0.511660394493056
0.238253599295587,-0.511660394493056
0.193136411795588,-0.509243402305556
0.272091489920586,-0.504409417930556
0.263229185233087,-0.492324456993056
0.266451841483087,-0.505215081993056
0.268063169608087,-0.500381097618056
0.277731138358087,-0.504409417930556
0.272091489920587,-0.470571527305556
0.293038755545587,-0.501992425743056
0.190719419608087,-0.502798089805556
0.242281919608086,-0.504409417930556
0.269674497733087,-0.506020746055556
0.297872739920586,-0.506020746055556
0.306735044608087,-0.468960199180556
0.297872739920586,-0.514077386680556
0.301095396170587,-0.497158441368056
0.310763364920586,-0.493935785118056
0.321236997733088,-0.508437738243056
0.338961607108086,-0.506020746055556
0.330904966483087,-0.491518792930556
0.329293638358087,-0.491518792930556
0.331710630545587,-0.504409417930556
0.336544614920586,-0.543081292930556
0.323653989920587,-0.498769769493056
0.334933286795587,-0.491518792930556
0.328487974295587,-0.490713128868056
0.351046568045586,-0.495547113243056
0.334127622733087,-0.496352777305556
0.318820005545586,-0.493130121055556
0.293038755545587,-0.508437738243055
0.303512388358087,-0.511660394493056
0.297872739920587,-0.498769769493055
0.287399107108087,-0.498769769493056
0.288204771170587,-0.498769769493056
0.296261411795586,-0.491518792930556
0.299484068045588,-0.492324456993056
0.293038755545586,-0.497964105430556
0.311569028983087,-0.496352777305556
0.321236997733087,-0.497158441368056
0.321236997733087,-0.504409417930556
0.325265318045587,-0.484267816368056
0.323653989920587,-0.497158441368056
0.351046568045586,-0.510049066368056
0.354269224295587,-0.486684808555556
0.376827818045586,-0.490713128868056
0.358297544608087,-0.496352777305556
0.359103208670586,-0.485879144493056
0.323653989920587,-0.503603753868056
0.330904966483086,-0.458486566368056
0.377633482108087,-0.519717035118056
0.282565122733086,-0.465737542930557
0.306735044608087,-0.479433831993056
0.297872739920586,-0.465737542930556
0.309957700858087,-0.466543206993056
0.323653989920587,-0.492324456993056
0.314791685233087,-0.497158441368056
0.303512388358087,-0.467348871055556
0.274508482108087,-0.473794183555556
0.294650083670587,-0.467348871055556
0.248727232108087,-0.482656488243056
0.248727232108087,-0.481045160118056
0.220528989920587,-0.477822503868056
0.203610044608087,-0.488296136680556
0.220528989920587,-0.474599847618056
0.215695005545587,-0.479433831993056
0.200387388358088,-0.489907464805556
0.223751646170586,-0.463320550743056
0.220528989920588,-0.481850824180556
0.102096372733087,-0.506020746055556
0.204415708670588,-0.518911371055556
0.247115903983087,-0.585781488243056
0.247115903983087,-0.581753167930556
0.234225278983086,-0.615591058555556
0.242281919608086,-0.697768792930556
0.201998716483087,-0.725161371055556
0.206027036795587,-0.760610589805556
0.197164732108086,-0.838760003868056
0.191525083670587,-0.871792230430556
0.205221372733087,-0.916909417930556
0.194747739920587,-0.948330316368056
0.194747739920587,-1.04017601949306
0.182662778983087,-1.03292504293056
0.200387388358087,-1.04742699605556
0.201998716483087,-1.10462914449306
0.158492857108087,-1.02486840230556
0.179440122733087,-1.14732933980556
0.168966489920587,-1.10946312886806
0.194747739920587,-1.13766137105556
0.194747739920587,-1.08529320699306
0.190719419608087,-1.03614769918056
0.186691099295587,-1.13202172261806
0.185885435233087,-1.09415551168056
0.227779966483087,-1.04984398824306
0.213278013358087,-0.981362542930556
0.220528989920587,-1.04742699605556
0.248727232108088,-0.957998285118056
0.220528989920587,-0.981362542930556
0.213278013358088,-0.953969964805556
0.341378599295587,-0.926577386680556
0.156075864920588,-0.898379144493056
0.186691099295586,-0.867763910118056
0.201998716483087,-0.847622308555556
0.197164732108087,-0.781557855430556
0.210055357108087,-0.874209222618056
0.206832700858086,-0.759804925743056
0.197164732108087,-0.799282464805556
0.213278013358086,-0.744497308555556
0.210055357108087,-0.732412347618056
0.232613950858087,-0.749331292930556
0.208444028983087,-0.713076410118056
0.215695005545587,-0.695351800743056
0.220528989920587,-0.678432855430556
0.216500669608087,-0.659096917930556
0.272091489920587,-0.632510003868056
0.210055357108086,-0.610757074180556
0.205221372733087,-0.592226800743056
0.232613950858086,-0.594643792930556
0.172994810233087,-0.559194574180556
0.194747739920587,-0.527773675743056
0.197970396170587,-0.535024652305556
0.196359068045587,-0.532607660118056
0.206832700858087,-0.528579339805556
0.216500669608086,-0.517300042930556
0.218111997733087,-0.516494378868056
0.194747739920587,-0.508437738243056
0.193136411795587,-0.474599847618056
0.187496763358087,-0.464126214805556
0.197164732108088,-0.527773675743056
0.187496763358086,-0.465737542930556
0.201998716483087,-0.389199456993056
0.181857114920586,-0.427871331993056
0.173800474295587,-0.395644769493056
0.166549497733086,-0.402090081993056
0.172994810233087,-0.387588128868056
0.194747739920586,-0.369863519493056
0.206027036795587,-0.388393792930556
0.195553403983086,-0.352944574180556
0.194747739920587,-0.325551996055556
0.180245786795587,-0.382754144493057
0.193942075858087,-0.344082269493057
0.160909849295587,-0.349721917930556
0.173800474295588,-0.371474847618056
0.197970396170587,-0.355361566368056
0.163326841483087,-0.377114496055557
0.163326841483086,-0.336831292930556
0.164938169608088,-0.361806878868056
0.148019224295587,-0.336025628868056
0.156881528983087,-0.324746331993056
0.164938169608086,-0.374697503868056
0.164132505545588,-0.372280511680556
0.140768247733087,-0.367446527305556
0.168966489920587,-0.395644769493056
0.190719419608087,-0.312661371055556
0.172994810233087,-0.375503167930556
0.148019224295587,-0.311050042930556
0.139962583670588,-0.380337152305556
0.152047544608087,-0.349721917930556
0.163326841483087,-0.327968988243056
0.170577818045587,-0.322329339805556
0.164938169608088,-0.344887933555556
0.190719419608086,-0.297353753868056
0.196359068045588,-0.327968988243056
0.168160825858087,-0.298159417930556
0.181857114920587,-0.326357660118056
0.129488950858086,-0.337636956993056
0.0787321149205871,-0.315078363243056
0.205221372733086,-0.336025628868056
0.233419614920587,-0.325551996055556
0.195553403983086,-0.327163324180556
0.186691099295587,-0.331191644493056
0.170577818045586,-0.339248285118057
0.164938169608087,-0.338442621055556
0.194747739920587,-0.319106683555556
0.198776060233088,-0.340053949180556
0.209249693045587,-0.353750238243056
0.210055357108087,-0.361001214805556
0.219723325858086,-0.342470941368057
0.220528989920587,-0.347304925743056
0.194747739920586,-0.388393792930556
0.232613950858087,-0.340859613243056
0.220528989920586,-0.336831292930556
0.205221372733087,-0.357778558555556
0.276925474295587,-0.340859613243056
0.235030943045587,-0.326357660118056
0.228585630545587,-0.353750238243056
0.220528989920587,-0.327968988243056
0.240670591483087,-0.322329339805556
0.219723325858087,-0.348110589805556
0.220528989920587,-0.295742425743056
0.181051450858087,-0.318301019493056
0.214889341483087,-0.318301019493056
0.222945982108087,-0.285268792930556
0.251949888358086,-0.345693597618056
0.220528989920588,-0.323940667930556
0.241476255545586,-0.246596917930556
0.255978208670587,-0.326357660118056
0.228585630545587,-0.283657464805556
0.197164732108088,-0.321523675743056
0.222945982108087,-0.283657464805556
0.210055357108087,-0.344082269493056
0.254366880545586,-0.329580316368056
0.249532896170587,-0.319912347618056
0.253561216483087,-0.349721917930556
0.214083677420587,-0.358584222618056
0.246310239920586,-0.346499261680556
0.241476255545588,-0.352138910118056
0.238253599295587,-0.331191644493056
0.160909849295587,-0.351333246055556
0.0626188336705865,-0.347304925743056
0.0456998883580873,-0.382754144493056
0.0279752789830869,-0.336831292930557
0.0344205914830869,-0.332802972618056
0.0352262555455866,-0.486684808555556
0.0585905133580869,-0.376308831993056
0.0368375836705867,-0.385976800743056
0.018307310233087,-0.326357660118057
0.0658414899205868,-0.424648675743056
0.0610075055455869,-0.409341058555556
0.0521452008580867,-0.380337152305556
0.0658414899205873,-0.403701410118057
0.085177427420586,-0.401284417930556
0.0916227399205872,-0.382754144493056
0.096456724295587,-0.334414300743056
0.126266294608087,-0.439956292930556
0.102902036795586,-0.416592035118056
0.106124693045588,-0.398867425743056
0.152047544608087,-0.349721917930556
0.100485044608087,-0.422231683555556
0.102096372733086,-0.388393792930556
0.0771207867955874,-0.397256097618056
0.0964567242955865,-0.374697503868056
0.123043638358088,-0.401284417930556
0.0835660992955863,-0.379531488243056
0.0779264508580866,-0.504409417930556
0.128683286795587,-0.382754144493056
0.151241880545587,-0.362612542930556
0.119015318045587,-0.439956292930556
0.139156919608087,-0.448818597618056
0.129488950858087,-0.377114496055556
0.156075864920588,-0.444790277305556
0.172994810233086,-0.401284417930556
0.186691099295587,-0.416592035118056
0.181051450858086,-0.446401605430556
0.181857114920587,-0.409341058555556
0.168966489920586,-0.413369378868056
0.193942075858087,-0.431093988243056
0.202804380545586,-0.406924066368056
0.235030943045587,-0.435122308555556
0.199581724295587,-0.411758050743055
0.234225278983087,-0.397256097618056
0.203610044608087,-0.414175042930556
0.208444028983087,-0.411758050743056
0.220528989920586,-0.401284417930556
0.293844419608087,-0.429482660118056
0.183468443045587,-0.397256097618056
0.238253599295587,-0.486684808555556
0.254366880545586,-0.405312738243056
0.246310239920587,-0.402895746055556
0.227779966483086,-0.413369378868056
0.264840513358088,-0.352138910118056
0.246310239920586,-0.455263910118056
0.272897153983087,-0.413369378868056
0.280953794608086,-0.401284417930556
0.234225278983087,-0.410146722618056
0.233419614920586,-0.437539300743056
0.220528989920587,-0.398867425743056
0.233419614920587,-0.415786371055556
0.255172544608088,-0.412563714805556
0.277731138358086,-0.385976800743056
0.285787778983087,-0.398867425743056
0.256783872733087,-0.414175042930556
0.295455747733087,-0.416592035118055
0.258395200858086,-0.401284417930556
0.264034849295587,-0.380337152305556
0.347823911795587,-0.427871331993056
0.295455747733087,-0.344887933555556
0.284982114920587,-0.396450433555556
0.305929380545587,-0.427871331993056
0.287399107108086,-0.389199456993056
0.264034849295587,-0.438344964805556
0.243893247733086,-0.381142816368056
0.220528989920587,-0.418203363243056
0.268868833670586,-0.412563714805556
0.246310239920587,-0.439956292930556
0.214889341483087,-0.362612542930556
0.192330747733087,-0.442373285118056
0.0706754742955869,-0.458486566368056
0.210055357108087,-0.402895746055556
0.277731138358086,-0.457680902305556
0.273702818045588,-0.397256097618056
0.247115903983087,-0.473794183555556
0.319625669608088,-0.387588128868056
0.277731138358087,-0.379531488243056
0.276925474295587,-0.423037347618056
0.276119810233087,-0.414175042930556
0.276925474295587,-0.405312738243056
0.250338560233086,-0.398867425743056
0.220528989920587,-0.414980706993056
0.168966489920586,-0.384365472618056
0.160104185233088,-0.464931878868056
0.147213560233087,-0.428676996055556
0.172994810233087,-0.394033441368056
0.171383482108086,-0.478628167930556
0.164132505545587,-0.367446527305556
0.168966489920586,-0.491518792930556
0.189913755545587,-0.458486566368056
0.215695005545586,-0.403701410118056
0.228585630545588,-0.447207269493056
0.211666685233086,-0.400478753868056
0.241476255545587,-0.444790277305556
0.268063169608087,-0.435927972618056
0.247115903983087,-0.427065667930556
0.213278013358086,-0.455263910118056
0.196359068045587,-0.416592035118056
0.206027036795586,-0.416592035118056
0.200387388358087,-0.477016839805556
0.193942075858086,-0.374697503868056
0.213278013358087,-0.436733636680556
0.256783872733087,-0.411758050743056
0.197970396170588,-0.431899652305556
0.251144224295587,-0.415786371055556
0.238253599295587,-0.387588128868056
0.238253599295586,-0.417397699180556
0.232613950858088,-0.414175042930556
0.210055357108086,-0.417397699180556
0.199581724295587,-0.400478753868056
0.191525083670587,-0.444790277305556
0.201193052420587,-0.427871331993056
0.221334653983086,-0.477822503868056
0.219723325858087,-0.376308831993056
0.231002622733087,-0.414175042930557
0.207638364920587,-0.376308831993056
0.218917661795587,-0.418203363243056
0.227779966483087,-0.390810785118056
-0.375662416329413,-0.387588128868056
-0.540823549141913,-0.362612542930556
-0.481204408516913,-0.377114496055556
-0.403860658516913,-0.355361566368056
-0.291067689766913,-0.394033441368056
-0.290262025704413,-0.358584222618056
-0.235476869454413,-0.381948480430555
-0.243533510079412,-0.388393792930556
-0.266092103829413,-0.362612542930556
-0.226614564766913,-0.375503167930556
-0.217752260079413,-0.344082269493056
-0.200027650704413,-0.396450433555556
-0.166995424141914,-0.349721917930556
-0.173440736641913,-0.336831292930556
-0.115432924141914,-0.388393792930556
-0.138797181954413,-0.384365472618056
-0.104153627266913,-0.365835199180556
-0.115432924141912,-0.379531488243056
-0.0719270647669134,-0.312661371055556
-0.0687044085169122,-0.390005121055556
-0.0888460100794138,-0.369057855430556
-0.127517885079412,-0.373891839805556
-0.102542299141914,-0.401284417930556
-0.0832063616419129,-0.381142816368056
-0.0364778460169135,-0.374697503868056
-0.0115022600794126,-0.388393792930556
0.00138836492058606,-0.360195550743056
0.00541668523308698,-0.406924066368056
0.0223356305455863,-0.401284417930557
-0.0348665178919124,-0.395644769493056
0.00702801335808631,-0.382754144493056
0.0255582867955879,-0.426260003868056
0.0521452008580869,-0.410952386680556
0.0537565289830875,-0.402090081993056
0.0698698102330865,-0.388393792930556
0.0787321149205876,-0.389199456993056
0.0714811383580863,-0.424648675743056
0.0779264508580878,-0.413369378868056
0.0916227399205867,-0.423037347618056
0.0875944196080875,-0.403701410118056
0.0618131696080864,-0.405312738243056
0.100485044608087,-0.373086175743056
0.138351255545587,-0.434316644493056
0.129488950858087,-0.403701410118056
0.142379575858087,-0.413369378868056
0.150436216483087,-0.400478753868056
0.177023130545587,-0.393227777305556
0.203610044608087,-0.414980706993056
0.214889341483087,-0.428676996055556
0.233419614920587,-0.427065667930557
0.232613950858086,-0.382754144493056
0.231002622733088,-0.401284417930556
0.215695005545586,-0.432705316368056
0.228585630545588,-0.431899652305556
0.246310239920586,-0.394033441368056
0.268868833670588,-0.402895746055556
0.261617857108086,-0.427871331993056
0.231002622733087,-0.427871331993056
0.264034849295586,-0.388393792930556
0.251949888358086,-0.414175042930556
0.263229185233087,-0.441567621055556
0.248727232108088,-0.399673089805556
0.260006528983086,-0.422231683555556
0.270480161795587,-0.406924066368056
0.243087583670587,-0.431093988243056
0.263229185233087,-0.430288324180556
0.272897153983087,-0.425454339805556
0.281759458670587,-0.390005121055556
0.296261411795587,-0.477016839805556
0.379244810233087,-0.439956292930556
0.276925474295587,-0.392422113243056
0.276119810233088,-0.444790277305556
0.258395200858087,-0.412563714805556
0.412277036795587,-0.454458246055557
0.251144224295587,-0.416592035118056
0.313986021170586,-0.453652581993056
0.296261411795586,-0.423037347618057
0.302706724295587,-0.441567621055556
0.287399107108086,-0.437539300743056
0.313180357108087,-0.439956292930556
0.296261411795586,-0.448818597618056
0.268868833670588,-0.461709222618056
0.261617857108086,-0.427065667930556
0.271285825858087,-0.464126214805556
0.284982114920587,-0.456875238243056
0.260812193045588,-0.460903558555556
0.257589536795586,-0.443178949180556
0.272091489920587,-0.416592035118056
0.275314146170587,-0.439956292930556
0.247921568045587,-0.455263910118056
0.247921568045586,-0.463320550743056
0.270480161795586,-0.448818597618056
0.272091489920586,-0.498769769493056
0.270480161795587,-0.430288324180556
0.272897153983086,-0.456875238243056
0.264840513358088,-0.484267816368056
0.246310239920586,-0.465737542930556
0.269674497733087,-0.487490472618056
0.274508482108086,-0.435927972618056
0.257589536795587,-0.477822503868056
0.272091489920586,-0.491518792930556
0.250338560233087,-0.456875238243056
0.276925474295586,-0.482656488243056
0.264034849295587,-0.474599847618056
0.208444028983086,-0.466543206993056
0.173800474295587,-0.481850824180556
0.272091489920587,-0.443178949180556
0.245504575858087,-0.480239496055556
0.218111997733086,-0.454458246055556
0.227779966483087,-0.471377191368056
0.216500669608087,-0.442373285118056
0.194747739920588,-0.474599847618056
0.190719419608087,-0.427871331993056
0.193942075858087,-0.465737542930557
0.231808286795586,-0.408535394493056
0.210055357108088,-0.431899652305556
0.181857114920586,-0.457680902305556
0.193942075858088,-0.461709222618056
0.168966489920586,-0.389199456993055
0.203610044608088,-0.427871331993056
0.216500669608087,-0.434316644493056
0.297872739920587,-0.414980706993056
0.217306333670586,-0.454458246055556
0.222140318045586,-0.410146722618056
0.205221372733087,-0.375503167930556
0.200387388358088,-0.373891839805557
0.233419614920586,-0.402090081993056
0.226168638358088,-0.399673089805556
0.181051450858086,-0.358584222618056
0.202804380545587,-0.377920160118056
0.224557310233087,-0.416592035118056
0.221334653983087,-0.365029535118056
0.240670591483087,-0.388393792930556
0.239864927420587,-0.361806878868056
0.245504575858087,-0.340859613243056
0.248727232108088,-0.362612542930556
0.231002622733087,-0.392422113243056
0.237447935233087,-0.377920160118057
0.245504575858087,-0.373086175743056
0.272091489920586,-0.373891839805556
0.246310239920587,-0.398867425743056
0.285787778983087,-0.360195550743056
0.237447935233086,-0.327968988243056
0.233419614920586,-0.427065667930556
0.247921568045587,-0.414980706993055
0.248727232108087,-0.401284417930556
0.257589536795587,-0.391616449180556
0.237447935233088,-0.370669183555557
0.239059263358087,-0.364223871055556
0.220528989920587,-0.285268792930557
0.244698911795586,-0.441567621055556
0.243893247733087,-0.402090081993056
0.213278013358087,-0.396450433555556
0.242281919608087,-0.384365472618056
0.209249693045586,-0.388393792930556
0.193136411795587,-0.414175042930556
0.189108091483086,-0.367446527305556
0.211666685233087,-0.394033441368056
0.196359068045586,-0.387588128868056
0.205221372733087,-0.408535394493056
0.192330747733087,-0.390005121055556
0.203610044608087,-0.374697503868056
0.172994810233086,-0.358584222618056
0.179440122733087,-0.447207269493056
0.181857114920586,-0.374697503868056
0.177023130545587,-0.423037347618056
0.152047544608086,-0.394839105430556
0.184274107108088,-0.410952386680556
0.183468443045586,-0.414980706993056
0.180245786795587,-0.419814691368056
0.195553403983087,-0.427065667930556
0.194747739920587,-0.414175042930556
0.140768247733086,-0.401284417930556
0.168966489920587,-0.421426019493056
0.208444028983087,-0.431899652305556
0.173800474295587,-0.352138910118056
0.158492857108087,-0.494741449180556
0.178634458670587,-0.423037347618056
0.145602232108087,-0.414175042930556
0.144796568045587,-0.414175042930556
0.166549497733086,-0.405312738243056
0.173800474295587,-0.460097894493055
0.168966489920587,-0.465737542930556
0.173800474295587,-0.439956292930556
0.170577818045587,-0.409341058555557
0.220528989920587,-0.401284417930556
0.206832700858087,-0.408535394493056
0.180245786795587,-0.431093988243056
0.181857114920586,-0.402895746055557
0.182662778983087,-0.456875238243056
0.184274107108086,-0.388393792930556
0.271285825858088,-0.445595941368056
0.181857114920586,-0.439956292930556
0.194747739920587,-0.400478753868056
0.220528989920587,-0.482656488243056
0.197164732108088,-0.437539300743056
0.197970396170586,-0.453652581993056
0.208444028983087,-0.386782464805556
0.213278013358086,-0.436733636680555
0.206832700858087,-0.414980706993056
0.202804380545586,-0.404507074180556
0.222945982108087,-0.502798089805556
0.231002622733087,-0.402895746055555
0.222945982108087,-0.475405511680556
0.198776060233087,-0.387588128868056
0.194747739920587,-0.485879144493056
0.193136411795587,-0.399673089805556
0.210055357108087,-0.438344964805556
0.193942075858087,-0.439956292930556
0.212472349295588,-0.415786371055556
0.182662778983087,-0.439956292930556
0.198776060233088,-0.410146722618056
0.169772153983086,-0.491518792930557
0.172994810233088,-0.381142816368056
0.160104185233086,-0.455263910118056
0.172994810233087,-0.428676996055556
0.181857114920587,-0.439956292930556
0.209249693045587,-0.456875238243056
0.212472349295586,-0.439150628868056
0.186691099295587,-0.468960199180556
0.222140318045586,-0.371474847618057
0.196359068045587,-0.439150628868056
0.169772153983086,-0.470571527305556
0.197970396170588,-0.448012933555556
0.171383482108087,-0.414980706993056
0.203610044608087,-0.410146722618056
0.177828794608086,-0.431093988243056
0.169772153983088,-0.420620355430556
0.122237974295586,-0.405312738243056
0.143185239920588,-0.519717035118056
0.105319028983086,-0.395644769493056
0.122237974295587,-0.418203363243056
0.151241880545586,-0.456875238243056
0.167355161795587,-0.400478753868056
0.135934263358087,-0.400478753868056
0.164938169608087,-0.503603753868056
0.148019224295587,-0.395644769493056
0.156075864920587,-0.438344964805556
0.111764341483087,-0.411758050743056
0.122237974295587,-0.439956292930556
0.0787321149205864,-0.376308831993056
0.0585905133580872,-0.390005121055556
0.0658414899205865,-0.455263910118056
0.0916227399205877,-0.371474847618056
0.119015318045586,-0.439150628868056
0.069869810233088,-0.410952386680555
0.0843717633580868,-0.406924066368055
0.0996793805455879,-0.396450433555556
0.101290708670586,-0.352138910118056
0.0658414899205871,-0.393227777305556
0.119820982108087,-0.410146722618056
0.0714811383580866,-0.373891839805556
0.0400602399205863,-0.363418206993056
0.0569791852330877,-0.385976800743056
0.0658414899205865,-0.439956292930556
0.0666471539830875,-0.376308831993056
0.113375669608087,-0.336831292930556
0.0634244977330872,-0.475405511680556
0.0505338727330866,-0.353750238243056
0.129488950858087,-0.398867425743056
0.0279752789830867,-0.365029535118057
0.0102506696080869,-0.363418206993056
0.0408659039830867,-0.388393792930556
0.0191129742955876,-0.364223871055556
0.0384489117955864,-0.388393792930556
0.0505338727330871,-0.388393792930556
0.116598325858088,-0.367446527305556
0.0690641461705864,-0.423843011680556
0.0682584821080865,-0.421426019493057
0.057784849295587,-0.335219964805556
0.090817075858086,-0.385976800743056
0.0521452008580871,-0.418203363243056
0.0730924664830865,-0.401284417930556
0.0730924664830874,-0.385976800743056
0.0658414899205867,-0.401284417930556
0.0537565289830871,-0.344082269493056
0.061007505545587,-0.390810785118056
0.0795377789830879,-0.362612542930556
0.0787321149205858,-0.389199456993056
0.0658414899205874,-0.359389886680556
0.143185239920587,-0.394033441368056
0.0650358258580873,-0.383559808555556
0.0988737164830863,-0.367446527305556
0.0916227399205869,-0.435122308555556
0.0698698102330862,-0.379531488243056
0.0787321149205874,-0.403701410118056
0.0674528180455867,-0.344887933555555
0.0787321149205873,-0.404507074180556
0.103707700858087,-0.365835199180556
0.093234068045587,-0.371474847618056
0.117403989920586,-0.397256097618056
0.0956510602330873,-0.351333246055556
0.0956510602330867,-0.402895746055556
0.102902036795587,-0.394033441368056
0.124654966483086,-0.398867425743056
0.102096372733087,-0.375503167930556
0.171383482108086,-0.374697503868056
0.129488950858087,-0.344887933555557
0.102096372733087,-0.400478753868056
0.0916227399205877,-0.380337152305556
0.102096372733087,-0.379531488243056
0.0779264508580872,-0.355361566368056
0.091622739920587,-0.401284417930556
0.0658414899205875,-0.397256097618057
0.0964567242955868,-0.366640863243056
0.0867887555455876,-0.384365472618056
0.0916227399205866,-0.379531488243056
0.0336149274205876,-0.357778558555556
0.101290708670586,-0.388393792930556
0.0448942242955877,-0.347304925743056
0.0585905133580865,-0.410952386680556
0.0513395367955872,-0.379531488243056
0.0787321149205865,-0.408535394493056
0.063424497733087,-0.378725824180556
0.0706754742955859,-0.390005121055556
0.0634244977330869,-0.358584222618056
0.0432828961705866,-0.391616449180556
0.050533872733087,-0.371474847618056
0.0779264508580864,-0.439956292930556
0.0674528180455879,-0.351333246055556
0.068258482108087,-0.363418206993056
0.0553678571080869,-0.358584222618056
0.0666471539830862,-0.411758050743056
0.0940397321080877,-0.381948480430556
0.103707700858087,-0.342470941368056
0.109347349295587,-0.406924066368056
0.0875944196080864,-0.368252191368055
0.0908170758580874,-0.357778558555556
0.112570005545587,-0.373086175743056
0.096456724295587,-0.382754144493056
0.107736021170587,-0.366640863243056
0.100485044608087,-0.402895746055556
0.128683286795587,-0.370669183555556
0.113375669608087,-0.336831292930556
0.127877622733087,-0.388393792930555
0.129488950858087,-0.348916253868056
0.164132505545587,-0.365835199180556
0.153658872733087,-0.387588128868056
0.157687193045586,-0.377920160118056
0.156881528983088,-0.362612542930556
0.156881528983087,-0.408535394493056
0.156075864920587,-0.358584222618056
0.160104185233086,-0.396450433555556
0.127877622733088,-0.388393792930556
0.166549497733087,-0.371474847618056
0.158492857108087,-0.345693597618057
0.155270200858086,-0.397256097618056
0.143185239920587,-0.384365472618056
0.139156919608086,-0.373086175743056
0.106930357108087,-0.362612542930556
0.0972623883580858,-0.397256097618056
0.182662778983088,-0.386782464805556
0.147213560233087,-0.401284417930556
0.154464536795587,-0.379531488243056
0.172994810233086,-0.403701410118056
0.148019224295587,-0.377114496055556
0.152047544608087,-0.367446527305556
0.0682584821080872,-0.388393792930556
0.143185239920586,-0.362612542930556
0.129488950858087,-0.380337152305555
0.160104185233087,-0.392422113243055
0.135128599295587,-0.382754144493056
0.180245786795587,-0.362612542930556
0.139156919608087,-0.381948480430556
0.144796568045586,-0.396450433555556
0.142379575858087,-0.360195550743056
0.129488950858087,-0.370669183555556
0.109347349295587,-0.401284417930556
0.143185239920587,-0.370669183555556
0.135128599295587,-0.373891839805556
0.177023130545587,-0.361806878868056
0.147213560233087,-0.373086175743056
0.143185239920586,-0.362612542930556
0.108541685233087,-0.385171136680556
0.103707700858087,-0.348916253868056
0.0384489117955876,-0.348916253868057
0.143185239920587,-0.337636956993056
0.102096372733087,-0.385976800743056
0.112570005545586,-0.347304925743056
0.123043638358087,-0.349721917930556
0.118209653983086,-0.401284417930556
0.120626646170587,-0.306216058555556
0.143185239920586,-0.396450433555556
0.0956510602330878,-0.348110589805556
0.218917661795587,-0.336831292930556
0.113375669608087,-0.345693597618056
0.107736021170587,-0.352944574180556
0.0867887555455871,-0.311050042930556
0.105319028983086,-0.332802972618056
0.0811491071080869,-0.339248285118056
0.114181333670587,-0.348110589805556
0.0916227399205874,-0.348916253868056
0.106124693045586,-0.332802972618056
0.114986997733087,-0.355361566368056
0.108541685233087,-0.336831292930555
0.116598325858087,-0.344082269493056
0.125460630545586,-0.368252191368056
0.102902036795587,-0.311855706993056
0.119015318045586,-0.353750238243055
0.129488950858087,-0.342470941368056
0.135128599295587,-0.336831292930556
0.115792661795588,-0.348916253868056
0.143990903983087,-0.362612542930556
0.111764341483088,-0.373891839805556
0.119820982108087,-0.359389886680556
0.119820982108088,-0.349721917930556
0.153658872733086,-0.337636956993056
0.107736021170588,-0.373086175743056
0.142379575858087,-0.325551996055556
0.138351255545587,-0.351333246055556
0.168966489920587,-0.360195550743056
0.123043638358087,-0.410952386680556
0.159298521170587,-0.349721917930557
0.154464536795587,-0.400478753868056
0.127877622733086,-0.324746331993056
0.118209653983087,-0.355361566368056
0.147213560233086,-0.362612542930556
0.135128599295587,-0.362612542930556
0.122237974295587,-0.342470941368056
0.091622739920587,-0.373086175743056
0.119015318045586,-0.344887933555556
0.0916227399205876,-0.336831292930556
0.110153013358087,-0.439150628868056
0.0795377789830872,-0.325551996055556
0.113375669608087,-0.392422113243056
0.0940397321080868,-0.400478753868056
0.119820982108087,-0.386782464805556
0.113375669608087,-0.351333246055556
0.117403989920586,-0.375503167930556
0.117403989920587,-0.352944574180556
0.117403989920586,-0.396450433555556
0.122237974295587,-0.349721917930556
0.125460630545587,-0.441567621055556
0.0996793805455877,-0.329580316368056
0.106930357108086,-0.426260003868056
0.128683286795587,-0.336831292930556
0.124654966483087,-0.465737542930557
0.151241880545588,-0.327163324180556
0.150436216483087,-0.398867425743056
0.171383482108087,-0.362612542930556
0.194747739920586,-0.390810785118056
0.174606138358087,-0.376308831993056
0.201998716483086,-0.376308831993056
0.183468443045587,-0.341665277305556
0.174606138358087,-0.426260003868056
0.156881528983087,-0.341665277305556
0.193136411795586,-0.373891839805556
0.169772153983087,-0.344887933555556
0.143185239920586,-0.413369378868056
0.148824888358087,-0.336831292930556
0.190719419608086,-0.400478753868056
0.099679380545587,-0.348916253868056
0.151241880545586,-0.431093988243056
0.0956510602330875,-0.344082269493056
0.103707700858087,-0.392422113243056
0.0956510602330877,-0.336025628868056
0.0924284039830866,-0.369863519493056
0.064230161795587,-0.361001214805556
0.0811491071080863,-0.357778558555556
0.0537565289830871,-0.349721917930556
0.0166959821080869,-0.349721917930556
0.0360319196080865,-0.337636956993056
0.082760435233086,-0.401284417930556
0.144796568045587,-0.349721917930556
0.122237974295587,-0.341665277305556
0.155270200858087,-0.336025628868056
0.135934263358086,-0.316689691368056
0.151241880545588,-0.388393792930556
0.143990903983087,-0.339248285118056
0.181857114920588,-0.386782464805556
0.183468443045586,-0.342470941368056
0.168966489920587,-0.393227777305556
0.156881528983087,-0.331191644493056
0.167355161795587,-0.357778558555556
0.182662778983087,-0.358584222618056
0.179440122733087,-0.329580316368056
0.168966489920587,-0.363418206993056
0.208444028983087,-0.390005121055556
0.181857114920587,-0.356972894493056
0.189108091483088,-0.397256097618056
0.172189146170587,-0.302187738243056
0.196359068045588,-0.394033441368056
0.193136411795586,-0.323940667930556
0.200387388358088,-0.356972894493056
0.169772153983086,-0.329580316368056
0.205221372733088,-0.365835199180556
0.225362974295586,-0.339248285118056
0.238253599295587,-0.387588128868056
0.198776060233086,-0.285268792930556
0.243087583670587,-0.380337152305556
0.182662778983087,-0.332802972618056
0.218917661795587,-0.393227777305556
0.199581724295586,-0.311050042930556
0.237447935233087,-0.309438714805556
0.245504575858087,-0.363418206993056
0.253561216483087,-0.332802972618056
0.194747739920587,-0.356167230430556
0.204415708670588,-0.348916253868056
0.203610044608086,-0.350527581993056
0.198776060233088,-0.308633050743056
0.177023130545586,-0.413369378868056
0.194747739920588,-0.297353753868056
0.170577818045587,-0.348916253868056
0.192330747733088,-0.307827386680556
0.168966489920587,-0.305410394493056
0.202804380545587,-0.386782464805556
0.168966489920586,-0.296548089805556
0.181857114920587,-0.344887933555556
0.165743833670586,-0.325551996055557
0.184274107108088,-0.337636956993056
0.160909849295586,-0.311050042930556
0.182662778983088,-0.402090081993056
0.150436216483087,-0.310244378868056
0.143990903983087,-0.331997308555556
0.0996793805455867,-0.334414300743056
0.0892057477330865,-0.315884027305556
0.103707700858087,-0.319106683555556
0.109347349295587,-0.331191644493056
0.0811491071080869,-0.349721917930556
0.0916227399205879,-0.347304925743056
0.100485044608086,-0.324746331993056
0.102096372733087,-0.306216058555557
0.093234068045587,-0.323940667930556
0.143185239920586,-0.363418206993056
0.116598325858087,-0.322329339805557
0.123043638358087,-0.328774652305556
0.110153013358086,-0.323135003868056
0.148824888358087,-0.348916253868056
0.137545591483087,-0.320718011680556
0.117403989920587,-0.381142816368056
0.123043638358086,-0.299770746055556
0.121432310233087,-0.377114496055556
0.114986997733087,-0.323135003868056
0.123043638358087,-0.331191644493056
0.105319028983086,-0.314272699180556
0.135934263358087,-0.331191644493056
0.156075864920587,-0.348916253868056
0.164938169608087,-0.323940667930556
0.0569791852330865,-0.353750238243056
0.138351255545587,-0.360195550743056
0.103707700858087,-0.346499261680556
0.129488950858087,-0.308633050743057
0.105319028983087,-0.307021722618056
0.148019224295588,-0.355361566368056
0.140768247733086,-0.312661371055556
0.154464536795587,-0.348916253868056
0.126266294608086,-0.345693597618056
0.155270200858087,-0.352138910118056
0.118209653983086,-0.320718011680556
0.143185239920587,-0.326357660118056
0.109347349295586,-0.362612542930556
0.143990903983088,-0.319912347618056
0.117403989920587,-0.357778558555556
0.148824888358087,-0.344887933555556
0.0819547711705865,-0.333608636680556
0.117403989920587,-0.388393792930556
0.104513364920587,-0.350527581993056
0.128683286795587,-0.325551996055556
0.0481168805455865,-0.352138910118056
0.117403989920587,-0.328774652305557
0.137545591483087,-0.337636956993056
0.142379575858088,-0.318301019493056
0.179440122733086,-0.336831292930556
0.161715513358087,-0.339248285118056
0.168966489920586,-0.321523675743056
0.192330747733088,-0.365835199180556
0.172189146170587,-0.315078363243056
0.177828794608087,-0.334414300743056
0.179440122733087,-0.331191644493056
0.208444028983087,-0.297353753868056
0.194747739920586,-0.342470941368056
0.206027036795586,-0.315078363243056
0.143990903983087,-0.339248285118056
0.206027036795587,-0.302187738243056
0.189108091483087,-0.315884027305556
0.220528989920588,-0.353750238243056
0.184274107108087,-0.305410394493056
0.220528989920587,-0.317495355430556
0.153658872733086,-0.328774652305556
0.164132505545587,-0.319912347618056
0.143185239920587,-0.319912347618056
0.158492857108087,-0.332802972618056
0.117403989920586,-0.297353753868056
0.120626646170588,-0.322329339805556
0.113375669608087,-0.311050042930556
0.117403989920587,-0.338442621055556
0.112570005545587,-0.311050042930556
0.121432310233086,-0.307827386680556
0.0996793805455868,-0.340859613243057
0.124654966483087,-0.332802972618056
0.0940397321080864,-0.315078363243056
0.0956510602330876,-0.333608636680556
0.116598325858087,-0.336831292930556
0.113375669608087,-0.327968988243056
0.106124693045587,-0.331191644493056
0.119015318045588,-0.338442621055556
0.0916227399205867,-0.298159417930556
0.111764341483088,-0.319912347618056
0.119820982108086,-0.311050042930556
0.088400083670587,-0.325551996055556
0.0714811383580867,-0.311050042930556
0.0787321149205872,-0.362612542930556
0.0416715680455862,-0.302993402305556
0.052145200858087,-0.328774652305556
0.0166959821080869,-0.311050042930556
0.0763151227330868,-0.310244378868056
0.0521452008580863,-0.311050042930556
0.104513364920587,-0.302993402305556
0.0738981305455868,-0.292519769493056
0.115792661795587,-0.297353753868056
0.0255582867955869,-0.311050042930556
0.0900114117955872,-0.298159417930556
0.088400083670586,-0.292519769493056
0.102096372733088,-0.336831292930556
0.0787321149205861,-0.285268792930556
0.0932340680455872,-0.311855706993056
0.0674528180455867,-0.302187738243056
0.0916227399205868,-0.285268792930556
0.0803434430455874,-0.297353753868056
0.0553678571080875,-0.286880121055556
0.0932340680455866,-0.294131097618056
0.106930357108086,-0.300576410118057
0.0658414899205871,-0.252236566368056
0.166549497733087,-0.290102777305556
0.0908170758580872,-0.285268792930556
0.0932340680455873,-0.298965081993056
0.103707700858087,-0.281240472618056
0.185885435233088,-0.297353753868056
0.114986997733087,-0.279629144493056
0.143185239920587,-0.302187738243056
0.0674528180455869,-0.314272699180556
0.148824888358087,-0.285268792930556
0.106124693045587,-0.302187738243056
0.145602232108087,-0.303799066368056
0.129488950858087,-0.287685785118056
0.152047544608087,-0.296548089805556
0.150436216483087,-0.311050042930556
0.159298521170587,-0.315884027305556
0.150436216483086,-0.289297113243056
0.158492857108087,-0.297353753868056
0.156075864920587,-0.296548089805556
0.189108091483086,-0.313467035118056
0.197970396170587,-0.269961175743056
0.184274107108088,-0.316689691368056
0.171383482108086,-0.271572503868056
0.189913755545587,-0.334414300743056
0.156881528983087,-0.269961175743056
0.174606138358087,-0.276406488243056
0.123849302420587,-0.295742425743056
0.148824888358087,-0.282046136680557
0.118209653983087,-0.298159417930556
0.168160825858087,-0.254653558555556
0.135934263358087,-0.278823480430556
0.143990903983087,-0.282851800743056
0.122237974295587,-0.241762933555556
0.144796568045587,-0.271572503868056
0.126266294608087,-0.269155511680556
0.129488950858087,-0.280434808555556
0.114181333670587,-0.269961175743056
0.152047544608088,-0.257876214805556
0.117403989920587,-0.289297113243056
0.121432310233087,-0.236928949180556
0.143185239920586,-0.258681878868056
0.0932340680455875,-0.273183831993056
0.117403989920587,-0.276406488243056
0.122237974295587,-0.263515863243056
0.146407896170586,-0.275600824180556
0.123043638358086,-0.272378167930556
0.218111997733087,-0.263515863243056
0.116598325858087,-0.298159417930556
0.137545591483086,-0.283657464805556
0.114986997733088,-0.253847894493056
0.143185239920587,-0.296548089805556
0.0916227399205873,-0.302993402305556
0.118209653983087,-0.294131097618056
0.0892057477330869,-0.278017816368056
0.138351255545586,-0.257876214805556
0.0803434430455872,-0.285268792930556
0.123043638358086,-0.319912347618056
0.0376432477330868,-0.268349847618056
0.128683286795587,-0.322329339805556
0.100485044608087,-0.249013910118056
0.129488950858087,-0.309438714805556
0.058590513358087,-0.286880121055556
0.148019224295587,-0.323940667930556
0.0819547711705868,-0.259487542930556
0.104513364920587,-0.305410394493056
0.0714811383580872,-0.302993402305556
0.0875944196080878,-0.303799066368056
0.058590513358087,-0.257876214805556
0.0964567242955865,-0.306216058555556
0.0875944196080875,-0.296548089805556
0.0916227399205869,-0.261904535118056
0.0714811383580879,-0.287685785118056
0.106930357108087,-0.332802972618056
0.0900114117955876,-0.298159417930556
0.0400602399205864,-0.286074456993056
0.0892057477330866,-0.282851800743056
0.114986997733087,-0.313467035118056
0.0658414899205876,-0.285268792930556
0.079537778983087,-0.315078363243057
0.0650358258580867,-0.257070550743057
0.0618131696080867,-0.324746331993056
0.0730924664830874,-0.285268792930556
0.123043638358087,-0.332802972618056
0.0859830914830869,-0.280434808555556
0.119820982108087,-0.314272699180556
0.0964567242955875,-0.319106683555556
0.0924284039830866,-0.336831292930557
0.117403989920587,-0.293325433555556
0.120626646170587,-0.307827386680556
0.139156919608087,-0.362612542930556
0.0811491071080863,-0.259487542930556
-0.0219758928919131,-0.305410394493056
0.00138836492058691,-0.298965081993056
-0.0260042132044133,-0.286880121055556
0.0142789899205868,-0.297353753868057
-0.0066682757044133,-0.272378167930556
0.0199186383580862,-0.307021722618055
0.00219402898308701,-0.303799066368056
0.022335630545587,-0.280434808555556
0.0400602399205874,-0.300576410118056
0.0634244977330864,-0.254653558555556
0.0513395367955875,-0.278017816368056
0.0400602399205868,-0.264321527305556
0.0279752789830879,-0.298159417930557
0.0505338727330863,-0.282851800743055
0.0456998883580875,-0.319106683555556
0.0223356305455868,-0.302187738243056
0.0328092633580871,-0.280434808555556
0.0577848492955862,-0.393227777305556
0.0384489117955866,-0.261904535118056
0.0674528180455868,-0.239345941368056
0.0183073102330874,-0.319106683555556
-0.0219758928919141,-0.287685785118056
0.0448942242955878,-0.259487542930556
0.0658414899205872,-0.236123285118056
0.023141294608087,-0.288491449180556
0.0867887555455866,-0.285268792930556
0.0489225446080873,-0.315884027305556
0.0763151227330862,-0.298159417930556
0.0271696149205874,-0.218398675743056
0.0956510602330869,-0.336831292930556
0.0932340680455867,-0.290102777305556
0.113375669608087,-0.328774652305556
0.090817075858087,-0.298159417930556
0.117403989920587,-0.310244378868056
0.113375669608087,-0.250625238243056
0.099679380545587,-0.289297113243056
0.124654966483087,-0.327163324180556
0.140768247733087,-0.248208246055556
0.112570005545587,-0.285268792930556
0.114181333670588,-0.282851800743056
0.103707700858087,-0.265127191368056
0.188302427420587,-0.295742425743056
0.107736021170588,-0.281240472618056
0.150436216483087,-0.272378167930557
0.139156919608088,-0.271572503868056
0.106124693045587,-0.312661371055556
0.110958677420587,-0.261904535118056
0.143185239920586,-0.300576410118056
0.194747739920587,-0.248208246055556
0.239059263358087,-0.267544183555556
0.196359068045587,-0.277212152305556
0.103707700858087,-0.261904535118057
0.218917661795587,-0.279629144493056
0.231808286795586,-0.232900628868056
0.192330747733088,-0.269961175743056
0.216500669608087,-0.268349847618056
0.203610044608087,-0.267544183555556
0.205221372733086,-0.263515863243056
0.0924284039830874,-0.269961175743056
0.123043638358086,-0.267544183555557
0.0819547711705874,-0.265127191368056
0.101290708670586,-0.259487542930556
0.0843717633580873,-0.261904535118056
0.0940397321080865,-0.250625238243056
0.0545621930455869,-0.285268792930556
0.0771207867955866,-0.257070550743056
0.0529508649205869,-0.259487542930556
0.0714811383580869,-0.289297113243056
0.0505338727330866,-0.251430902305556
0.0706754742955859,-0.253847894493056
0.0763151227330871,-0.249819574180556
0.0779264508580871,-0.249013910118056
0.0714811383580875,-0.249013910118056
0.0537565289830865,-0.271572503868056
0.0400602399205877,-0.211953363243057
0.0714811383580868,-0.285268792930556
0.0537565289830881,-0.254653558555556
0.0658414899205865,-0.259487542930556
0.0634244977330875,-0.278017816368056
0.0376432477330872,-0.258681878868056
0.036031919608087,-0.254653558555556
0.0424772321080861,-0.256264886680556
0.0456998883580868,-0.238540277305556
0.0892057477330861,-0.249819574180556
0.0658414899205875,-0.281240472618056
0.0755094586705872,-0.258681878868056
0.0247526227330873,-0.241762933555556
0.0658414899205866,-0.264321527305556
-0.011502260079413,-0.235317621055556
0.065841489920586,-0.258681878868056
0.0658414899205869,-0.241762933555556
0.0658414899205863,-0.253847894493056
0.071481138358087,-0.253847894493056
0.103707700858086,-0.229677972618056
0.0658414899205877,-0.232094964805556
0.0658414899205867,-0.268349847618056
0.0537565289830872,-0.239345941368056
0.0916227399205864,-0.205508050743056
0.0738981305455872,-0.229677972618056
0.0666471539830862,-0.263515863243056
0.0577848492955872,-0.224843988243056
0.0658414899205871,-0.231289300743056
0.0489225446080878,-0.253847894493056
0.0811491071080869,-0.262710199180556
0.0682584821080876,-0.259487542930556
0.0892057477330866,-0.207925042930556
0.0714811383580877,-0.226455316368056
0.115792661795587,-0.245791253868056
0.0610075055455877,-0.232900628868056
0.0884000836705868,-0.244179925743056
0.0811491071080876,-0.246596917930556
0.115792661795587,-0.240957269493056
0.077926450858087,-0.219204339805557
0.102902036795585,-0.246596917930556
0.0650358258580869,-0.232900628868056
0.0634244977330867,-0.257876214805557
0.0610075055455874,-0.234511956993056
0.0980680524205868,-0.239345941368056
0.0618131696080879,-0.226455316368056
0.065841489920587,-0.233706292930556
0.0827604352330872,-0.207925042930556
0.0972623883580861,-0.257070550743056
0.0666471539830872,-0.207119378868056
0.0916227399205866,-0.233706292930556
0.0706754742955869,-0.239345941368056
0.0650358258580864,-0.244179925743056
0.0698698102330876,-0.249013910118056
0.0827604352330863,-0.211147699180556
0.0827604352330867,-0.233706292930556
0.0892057477330865,-0.260293206993055
0.0787321149205867,-0.219204339805556
0.100485044608087,-0.233706292930556
0.102902036795587,-0.223232660118056
0.124654966483086,-0.238540277305556
0.093234068045587,-0.221621331993056
0.129488950858087,-0.248208246055556
0.0827604352330874,-0.233706292930556
0.117403989920586,-0.211953363243056
0.0940397321080878,-0.232094964805556
0.0803434430455863,-0.174087152305556
0.0835660992955876,-0.222426996055557
0.0916227399205866,-0.246596917930556
0.102902036795587,-0.233706292930556
0.0618131696080864,-0.231289300743056
0.0755094586705875,-0.249819574180556
0.0247526227330863,-0.231289300743056
0.100485044608087,-0.240151605430556
0.0271696149205861,-0.222426996055556
0.0537565289830875,-0.249819574180556
0.0424772321080869,-0.260293206993056
0.0424772321080874,-0.220010003868056
0.0392545758580865,-0.273183831993056
0.062618833670587,-0.237734613243056
0.0247526227330863,-0.293325433555556
0.0658414899205867,-0.276406488243056
0.0618131696080863,-0.228872308555557
0.0916227399205871,-0.308633050743056
0.0650358258580861,-0.218398675743056
0.0892057477330871,-0.273989496055556
0.0642301617955867,-0.246596917930556
0.0803434430455869,-0.252236566368056
0.0263639508580865,-0.261904535118056
0.0440885602330867,-0.247402581993056
0.0400602399205868,-0.263515863243056
0.0779264508580871,-0.259487542930556
0.00702801335808712,-0.271572503868056
0.0610075055455873,-0.267544183555556
0.020724302420587,-0.279629144493056
0.0771207867955872,-0.272378167930556
0.0400602399205868,-0.195840081993056
0.0569791852330874,-0.292519769493056
0.0618131696080863,-0.249819574180556
0.0779264508580874,-0.273989496055556
-0.0115022600794132,-0.207925042930556
0.0577848492955876,-0.273989496055556
0.0666471539830865,-0.251430902305556
0.0747037946080868,-0.273989496055556
0.0481168805455859,-0.264321527305556
0.0867887555455866,-0.242568597618056
0.0730924664830867,-0.279629144493056
0.0795377789830876,-0.257876214805556
0.125460630545586,-0.262710199180555
0.0803434430455881,-0.266738519493056
0.0529508649205871,-0.228872308555556
0.0618131696080875,-0.272378167930556
0.0618131696080867,-0.231289300743056
0.0900114117955872,-0.249013910118056
0.0763151227330868,-0.250625238243056
0.0577848492955871,-0.255459222618056
0.0682584821080866,-0.298159417930556
0.100485044608087,-0.248208246055556
0.0690641461705865,-0.254653558555556
0.0875944196080871,-0.246596917930556
0.0771207867955866,-0.260293206993055
0.0779264508580868,-0.250625238243056
0.0577848492955869,-0.236928949180556
0.0819547711705872,-0.273989496055556
0.0658414899205864,-0.231289300743056
0.0835660992955873,-0.269961175743056
0.0714811383580872,-0.257070550743056
0.0690641461705871,-0.246596917930556
0.0505338727330862,-0.279629144493056
0.065841489920588,-0.258681878868056
0.0392545758580865,-0.237734613243056
0.0658414899205875,-0.257070550743056
0.0271696149205862,-0.253042230430556
0.0610075055455877,-0.259487542930556
0.0320035992955866,-0.257070550743056
0.0682584821080877,-0.270766839805556
0.0618131696080861,-0.260293206993056
0.0787321149205865,-0.253847894493056
0.0424772321080863,-0.312661371055556
0.0602018414830874,-0.283657464805557
0.0658414899205865,-0.268349847618056
0.0650358258580879,-0.270766839805556
0.0271696149205869,-0.273183831993056
0.0247526227330872,-0.249013910118056
-0.0115022600794136,-0.254653558555556
0.0142789899205873,-0.282851800743056
-0.0243928850794136,-0.261098871055556
0.00461102117058742,-0.235317621055556
0.0102506696080861,-0.223232660118056
0.0142789899205873,-0.351333246055556
-0.00425128351691343,-0.273183831993057
0.0126676617955874,-0.272378167930557
0.0730924664830867,-0.303799066368056
0.0360319196080866,-0.257070550743056
0.00541668523308728,-0.270766839805556
0.0473112164830874,-0.258681878868056
0.0811491071080862,-0.231289300743056
0.0738981305455872,-0.293325433555556
0.0400602399205869,-0.298965081993056
0.0263639508580875,-0.245791253868056
0.0271696149205863,-0.339248285118056
0.0730924664830875,-0.302187738243056
0.0448942242955864,-0.219204339805556
0.0400602399205878,-0.287685785118056
0.0698698102330874,-0.271572503868056
0.0916227399205877,-0.299770746055556
0.0545621930455862,-0.285268792930556
0.0738981305455873,-0.216787347618056
0.0553678571080862,-0.306216058555556
0.0843717633580871,-0.273989496055556
0.0545621930455861,-0.253847894493056
0.067452818045587,-0.294131097618056
0.0416715680455859,-0.250625238243056
0.0400602399205878,-0.223232660118056
0.0440885602330869,-0.293325433555556
0.0771207867955867,-0.279629144493056
0.0602018414830864,-0.199062738243056
0.0537565289830873,-0.267544183555556
0.0505338727330863,-0.298159417930557
0.0569791852330868,-0.238540277305556
0.0448942242955867,-0.276406488243056
0.0988737164830874,-0.265127191368056
-0.048562806954413,-0.318301019493057
0.0585905133580872,-0.273989496055556
0.0513395367955869,-0.221621331993056
0.0400602399205872,-0.362612542930556
0.0424772321080867,-0.215176019493056
0.0771207867955877,-0.311050042930556
0.0747037946080862,-0.265127191368056
0.0803434430455874,-0.256264886680556
0.0674528180455869,-0.273183831993056
0.0795377789830874,-0.266738519493056
0.0682584821080865,-0.315884027305556
0.0529508649205879,-0.206313714805556
0.0400602399205864,-0.298159417930556
0.0787321149205875,-0.234511956993057
0.0658414899205868,-0.289297113243056
0.137545591483088,-0.259487542930557
0.082760435233087,-0.266738519493056
0.0892057477330869,-0.280434808555557
0.0771207867955858,-0.310244378868056
0.0730924664830867,-0.222426996055556
0.0948453961705863,-0.264321527305557
0.0875944196080873,-0.284463128868056
0.0521452008580861,-0.277212152305556
0.0618131696080871,-0.303799066368056
0.0489225446080868,-0.221621331993056
0.021529966483087,-0.253847894493056
0.00863934148308682,-0.285268792930556
0.0142789899205865,-0.233706292930556
0.0166959821080863,-0.311050042930556
-0.00586261164191244,-0.248208246055556
0.0110563336705864,-0.254653558555556
0.0545621930455873,-0.244985589805556
-0.0268098772669132,-0.256264886680556
0.00702801335808682,-0.267544183555557
-0.0074739397669127,-0.232094964805556
-0.00183429132941289,-0.287685785118056
0.0287809430455872,-0.161196527305556
0.0384489117955865,-0.331191644493056
0.0223356305455864,-0.199868402305556
0.0328092633580873,-0.336831292930556
0.0223356305455871,-0.197451410118056
0.0263639508580875,-0.295742425743056
0.0755094586705864,-0.254653558555555
0.0344205914830876,-0.251430902305556
0.0658414899205867,-0.207925042930556
0.084371763358087,-0.319106683555556
0.125460630545586,-0.232900628868056
0.142379575858088,-0.321523675743057
0.0811491071080864,-0.241762933555556
0.0900114117955874,-0.264321527305556
0.135934263358087,-0.216787347618056
0.121432310233087,-0.310244378868056
0.0996793805455872,-0.251430902305556
0.0900114117955873,-0.272378167930556
0.0916227399205862,-0.186977777305556
0.116598325858087,-0.336025628868056
0.102096372733087,-0.195034417930556
0.0892057477330864,-0.283657464805556
0.0827604352330864,-0.259487542930556
0.0674528180455876,-0.259487542930556
0.0440885602330866,-0.312661371055556
0.0481168805455871,-0.240957269493056
0.0658414899205871,-0.277212152305556
0.0779264508580872,-0.256264886680556
0.0682584821080869,-0.299770746055556
0.0908170758580868,-0.269155511680557
0.0811491071080864,-0.272378167930556
0.151241880545586,-0.280434808555556
0.0658414899205867,-0.220010003868056
0.0859830914830868,-0.292519769493056
0.087594419608087,-0.240957269493056
0.106930357108087,-0.268349847618056
0.110958677420586,-0.298159417930556
0.117403989920587,-0.243374261680556
0.110153013358086,-0.270766839805556
0.116598325858088,-0.277212152305556
0.123043638358087,-0.236123285118056
0.103707700858088,-0.277212152305557
0.115792661795586,-0.250625238243056
0.119820982108088,-0.261904535118056
0.115792661795587,-0.285268792930556
0.095651060233087,-0.235317621055556
0.138351255545587,-0.255459222618056
0.0658414899205864,-0.220010003868056
0.0771207867955865,-0.261098871055557
0.0618131696080876,-0.259487542930557
0.068258482108087,-0.244985589805556
0.0577848492955875,-0.260293206993057
0.110153013358087,-0.250625238243057
0.124654966483087,-0.251430902305556
0.143185239920586,-0.277212152305557
0.145602232108087,-0.268349847618056
0.156075864920587,-0.305410394493057
0.143185239920587,-0.257070550743057
0.160909849295586,-0.255459222618056
0.153658872733087,-0.255459222618056
0.140768247733087,-0.220815667930556
0.143185239920587,-0.211147699180556
0.127877622733087,-0.317495355430556
0.168160825858087,-0.275600824180556
0.211666685233086,-0.243374261680556
0.145602232108087,-0.285268792930556
0.166549497733087,-0.251430902305556
0.174606138358088,-0.269961175743056
0.177023130545587,-0.285268792930556
0.197164732108088,-0.268349847618056
0.220528989920587,-0.276406488243056
0.212472349295588,-0.270766839805556
0.215695005545586,-0.264321527305556
0.197970396170588,-0.285268792930556
0.260006528983087,-0.249013910118056
0.225362974295588,-0.259487542930556
0.276925474295587,-0.283657464805556
0.246310239920587,-0.261904535118056
0.239864927420586,-0.273989496055556
0.186691099295587,-0.244179925743056
0.222945982108087,-0.277212152305557
0.214083677420587,-0.279629144493056
0.220528989920587,-0.323940667930556
0.222140318045588,-0.228872308555556
0.235030943045587,-0.298159417930556
0.193942075858087,-0.259487542930556
0.206832700858087,-0.274795160118056
0.184274107108088,-0.302993402305556
0.225362974295587,-0.238540277305556
0.202804380545587,-0.254653558555556
0.198776060233087,-0.297353753868056
0.152047544608087,-0.254653558555556
0.156881528983086,-0.263515863243056
0.150436216483087,-0.242568597618056
0.171383482108087,-0.273989496055556
0.160104185233087,-0.259487542930556
0.154464536795587,-0.246596917930557
0.0747037946080873,-0.247402581993056
0.145602232108086,-0.255459222618056
0.150436216483087,-0.259487542930556
0.160104185233087,-0.259487542930556
0.112570005545587,-0.284463128868056
0.106124693045586,-0.289297113243056
0.158492857108088,-0.246596917930556
0.124654966483086,-0.261098871055557
0.138351255545587,-0.269155511680557
0.143185239920586,-0.233706292930556
0.171383482108087,-0.283657464805556
0.145602232108086,-0.264321527305556
0.102096372733087,-0.284463128868057
0.114181333670586,-0.292519769493056
0.0424772321080871,-0.311050042930556
0.0618131696080866,-0.238540277305556
0.0416715680455876,-0.248208246055556
0.0279752789830861,-0.259487542930556
0.0247526227330877,-0.223232660118056
0.0658414899205865,-0.251430902305556
0.0191129742955874,-0.296548089805556
0.0473112164830863,-0.263515863243056
0.0513395367955872,-0.285268792930556
0.0763151227330862,-0.311050042930556
0.090817075858087,-0.243374261680556
0.112570005545586,-0.276406488243056
0.126266294608087,-0.233706292930556
0.0811491071080862,-0.265127191368056
0.086788755545587,-0.259487542930556
0.112570005545587,-0.257876214805556
0.0787321149205871,-0.273989496055556
0.119820982108087,-0.264321527305556
0.129488950858087,-0.287685785118056
0.160909849295587,-0.228872308555556
0.145602232108087,-0.274795160118056
0.160909849295587,-0.279629144493056
0.168966489920587,-0.244985589805556
0.212472349295587,-0.271572503868056
0.166549497733088,-0.298159417930556
0.168966489920586,-0.261904535118056
0.151241880545588,-0.245791253868056
0.161715513358086,-0.256264886680555
0.0940397321080876,-0.250625238243056
0.169772153983086,-0.295742425743056
0.0827604352330868,-0.232900628868056
0.142379575858087,-0.287685785118056
0.105319028983087,-0.217593011680556
0.115792661795587,-0.288491449180556
0.117403989920587,-0.217593011680556
0.110153013358087,-0.236928949180556
0.117403989920588,-0.285268792930556
0.112570005545586,-0.235317621055556
0.106930357108087,-0.250625238243056
0.117403989920586,-0.245791253868056
0.124654966483087,-0.218398675743056
0.146407896170587,-0.270766839805556
0.0908170758580868,-0.236123285118056
0.0658414899205867,-0.250625238243056
0.0577848492955875,-0.228872308555556
0.0481168805455865,-0.252236566368056
0.0577848492955868,-0.215981683555557
0.0473112164830865,-0.224038324180556
0.0448942242955867,-0.246596917930556
0.0658414899205867,-0.210342035118056
0.0513395367955867,-0.259487542930556
0.0618131696080863,-0.224843988243056
0.0593961774205866,-0.195840081993056
0.022335630545587,-0.203896722618056
-0.0316438616419122,-0.216787347618056
-0.0324495257044135,-0.186172113243056
-0.0960969866419121,-0.237734613243056
-0.0969026507044135,-0.197451410118056
-0.116238588204412,-0.212759027305557
-0.134768861641914,-0.204702386680556
-0.150882142891913,-0.233706292930556
-0.102542299141913,-0.212759027305556
-0.140408510079413,-0.193423089805556
-0.0960969866419133,-0.207925042930556
-0.112210267891913,-0.171670160118056
-0.104959291329414,-0.258681878868057
-0.125906556954413,-0.218398675743056
-0.125100892891913,-0.209536371055556
-0.0912630022669126,-0.225649652305556
-0.0711214007044128,-0.229677972618056
-0.0380891741419129,-0.211953363243056
0.0191129742955863,-0.242568597618057
0.0287809430455871,-0.224843988243056
0.0545621930455865,-0.195034417930556
0.0585905133580866,-0.232094964805556
0.0618131696080862,-0.211953363243056
0.0779264508580872,-0.207925042930556
0.00461102117058638,-0.218398675743056
-0.0558137835169129,-0.215981683555557
-0.0759553850794134,-0.232094964805556
-0.104153627266913,-0.222426996055557
-0.0775667132044136,-0.187783441368056
-0.0840120257044123,-0.220815667930556
-0.0719270647669129,-0.213564691368056
-0.0743440569544126,-0.240957269493056
-0.0380891741419133,-0.195034417930556
-0.0759553850794119,-0.226455316368056
-0.0115022600794135,-0.213564691368056
-0.0227815569544124,-0.199062738243056
0.0046110211705863,-0.234511956993056
0.00138836492058775,-0.170864496055556
0.0231412946080864,-0.226455316368056
0.0150846539830873,-0.174087152305556
0.0271696149205865,-0.245791253868056
-0.0115022600794126,-0.285268792930557
0.0352262555455859,-0.226455316368056
0.0376432477330871,-0.233706292930556
0.0166959821080871,-0.193423089805556
0.0223356305455869,-0.179726800743056
0.0521452008580864,-0.268349847618056
0.0666471539830875,-0.220815667930557
0.0787321149205872,-0.267544183555556
0.0585905133580869,-0.195034417930556
0.0916227399205865,-0.251430902305556
0.0916227399205873,-0.220010003868056
0.0827604352330871,-0.199868402305557
0.102096372733087,-0.206313714805556
0.129488950858086,-0.172475824180556
0.143185239920587,-0.322329339805556
0.184274107108087,-0.248208246055557
0.191525083670587,-0.260293206993057
0.202804380545587,-0.186977777305556
0.194747739920587,-0.220815667930556
0.197164732108087,-0.187783441368056
0.196359068045587,-0.173281488243056
0.198776060233086,-0.271572503868056
0.194747739920587,-0.257070550743056
0.301095396170587,-0.165224847618056
0.218111997733087,-0.282851800743056
0.238253599295586,-0.232094964805556
0.211666685233088,-0.195840081993056
0.216500669608087,-0.211953363243056
0.194747739920588,-0.181338128868056
0.211666685233086,-0.250625238243056
0.213278013358087,-0.249013910118056
0.219723325858087,-0.197451410118056
0.199581724295587,-0.166836175743056
0.207638364920586,-0.156362542930556
0.196359068045587,-0.257876214805556
0.194747739920586,-0.178115472618056
0.212472349295588,-0.234511956993056
0.199581724295587,-0.191811761680556
0.167355161795587,-0.208730706993056
0.167355161795586,-0.195034417930556
0.183468443045587,-0.197451410118056
0.116598325858086,-0.207119378868056
0.152853208670587,-0.216787347618056
0.135934263358086,-0.236123285118057
0.168966489920587,-0.170864496055556
0.168160825858086,-0.232900628868056
0.161715513358087,-0.226455316368056
0.150436216483087,-0.169253167930556
0.160909849295587,-0.274795160118056
0.194747739920587,-0.191811761680556
0.143990903983087,-0.247402581993056
0.119015318045587,-0.191006097618056
0.117403989920587,-0.224843988243056
0.164132505545587,-0.207925042930556
0.146407896170587,-0.197451410118056
0.142379575858087,-0.258681878868056
0.109347349295587,-0.129775628868056
0.106930357108086,-0.203091058555556
0.114181333670587,-0.220815667930556
0.104513364920586,-0.197451410118056
0.143185239920587,-0.236123285118056
0.106124693045587,-0.233706292930555
0.0843717633580872,-0.190200433555556
0.110153013358087,-0.211147699180556
0.0787321149205872,-0.235317621055556
0.0706754742955855,-0.195034417930556
0.0489225446080867,-0.145083246055556
0.0392545758580868,-0.308633050743057
0.030392271170587,-0.180532464805556
-0.00908526789191356,-0.191811761680555
-0.00263995539191182,-0.238540277305556
-0.00586261164191317,-0.223232660118056
-0.0268098772669124,-0.250625238243056
-0.0251985491419133,-0.215176019493056
-0.049368471016913,-0.153945550743056
-0.0469514788294133,-0.220815667930557
-0.055813783516913,-0.207925042930556
-0.0590364397669133,-0.222426996055556
-0.0550081194544125,-0.202285394493056
-0.0268098772669132,-0.268349847618056
-0.038089174141913,-0.192617425743056
-0.0582307757044132,-0.276406488243056
-0.063064760079413,-0.207925042930556
-0.0977083147669135,-0.220010003868056
-0.0501741350794128,-0.184560785118056
-0.0638704241419134,-0.216787347618056
-0.0590364397669125,-0.229677972618056
-0.0582307757044134,-0.231289300743056
-0.123489564766912,-0.245791253868056
-0.167801088204413,-0.207925042930556
-0.160550111641912,-0.200674066368056
-0.179080385079413,-0.210342035118056
-0.165384096016912,-0.228872308555556
-0.129129213204414,-0.215981683555556
-0.127517885079413,-0.224843988243056
-0.113015931954414,-0.209536371055556
-0.0888460100794124,-0.218398675743056
-0.0235872210169139,-0.216787347618056
-0.00425128351691309,-0.222426996055556
0.00219402898308706,-0.181338128868056
0.00541668523308721,-0.257876214805556
-0.0123079241419139,-0.226455316368056
0.00622234929558755,-0.211953363243056
0.031197935233087,-0.233706292930556
0.0215299664830868,-0.226455316368056
0.00863934148308668,-0.236123285118056
0.0400602399205868,-0.167641839805556
0.0287809430455866,-0.244985589805556
0.0481168805455875,-0.232094964805556
0.0360319196080866,-0.223232660118056
-0.0461458147669129,-0.210342035118056
-0.0799837053919131,-0.211953363243056
-0.067093080391913,-0.259487542930556
-0.0783723772669129,-0.281240472618056
-0.0630647600794126,-0.234511956993056
-0.113015931954413,-0.195034417930556
-0.088846010079413,-0.218398675743056
-0.0888460100794135,-0.257876214805556
-0.0670930803919125,-0.246596917930556
-0.0880403460169123,-0.210342035118056
-0.0807893694544129,-0.239345941368056
-0.0284212053919134,-0.211953363243056
-0.0388948382044119,-0.239345941368056
-0.0332551897669132,-0.248208246055556
-0.031643861641912,-0.254653558555556
-0.0324495257044128,-0.211147699180556
-0.0219758928919126,-0.265127191368056
0.00622234929558646,-0.220815667930557
0.0400602399205873,-0.228066644493056
0.0295866071080867,-0.252236566368056
0.117403989920587,-0.207925042930556
0.0400602399205873,-0.233706292930557
-0.0550081194544131,-0.226455316368057
-0.0614534319544134,-0.236928949180556
-0.114627260079413,-0.253847894493056
-0.149270814766913,-0.254653558555556
-0.202444642891913,-0.229677972618056
-0.236282533516913,-0.219204339805556
-0.245950502266913,-0.239345941368056
-0.257229799141913,-0.211953363243056
-0.229837221016913,-0.241762933555556
-0.213723939766913,-0.233706292930556
-0.200027650704412,-0.242568597618056
-0.203250306954413,-0.249819574180556
-0.196804994454413,-0.233706292930556
-0.183108705391913,-0.229677972618056
-0.178274721016913,-0.228872308555556
-0.179886049141913,-0.234511956993056
-0.150882142891913,-0.233706292930556
-0.153299135079414,-0.232900628868056
-0.157327455391913,-0.251430902305556
-0.155716127266913,-0.235317621055556
-0.140408510079412,-0.233706292930556
-0.0646760882044134,-0.258681878868056
-0.118655580391912,-0.236928949180556
-0.164578431954413,-0.236123285118056
-0.114627260079412,-0.257070550743056
-0.0832063616419132,-0.233706292930556
-0.0759553850794124,-0.233706292930556
-0.0630647600794125,-0.220010003868056
-0.0614534319544127,-0.259487542930556
-0.0332551897669135,-0.207925042930556
0.0231412946080864,-0.259487542930557
0.058590513358086,-0.228872308555556
0.103707700858088,-0.244179925743057
0.0827604352330862,-0.220010003868056
0.123043638358088,-0.233706292930556
0.166549497733087,-0.234511956993056
0.235030943045587,-0.253847894493056
0.151241880545586,-0.207925042930556
0.0956510602330876,-0.253847894493056
0.116598325858086,-0.207925042930556
0.169772153983087,-0.246596917930556
0.227779966483086,-0.212759027305556
0.161715513358087,-0.236123285118056
0.174606138358086,-0.246596917930556
0.156075864920587,-0.220010003868057
0.143990903983087,-0.160390863243056
0.119820982108087,-0.236123285118056
0.129488950858087,-0.222426996055556
0.179440122733087,-0.245791253868056
0.191525083670586,-0.258681878868056
0.244698911795587,-0.216787347618056
0.237447935233087,-0.233706292930556
0.235836607108087,-0.202285394493056
0.197970396170586,-0.207925042930556
0.199581724295588,-0.215981683555557
0.260006528983086,-0.231289300743056
0.206027036795588,-0.237734613243056
0.235836607108087,-0.222426996055556
0.237447935233088,-0.207925042930556
0.246310239920586,-0.255459222618056
0.264034849295587,-0.182949456993056
0.258395200858086,-0.222426996055556
0.246310239920587,-0.195034417930556
0.222945982108086,-0.202285394493056
0.246310239920587,-0.207925042930556
0.168160825858086,-0.198257074180556
0.168160825858088,-0.196645746055556
0.199581724295587,-0.191006097618056
0.208444028983087,-0.195034417930556
0.193942075858086,-0.220815667930556
0.200387388358087,-0.198257074180556
0.227779966483086,-0.182143792930556
0.226168638358087,-0.193423089805556
0.213278013358087,-0.209536371055556
0.233419614920588,-0.206313714805556
0.205221372733087,-0.194228753868057
0.212472349295587,-0.211953363243057
0.180245786795587,-0.207925042930555
0.183468443045587,-0.233706292930556
0.171383482108087,-0.196645746055557
0.184274107108088,-0.208730706993056
0.166549497733086,-0.195034417930556
0.181051450858087,-0.211953363243056
0.110153013358087,-0.207925042930556
-0.0815950335169129,-0.218398675743056
-0.171023744454413,-0.200674066368056
-0.191971010079412,-0.211953363243056
-0.179886049141914,-0.194228753868056
-0.190359681954413,-0.184560785118057
-0.197610658516913,-0.217593011680556
-0.179886049141912,-0.203896722618056
-0.154910463204413,-0.233706292930556
-0.150882142891913,-0.170864496055556
-0.166189760079414,-0.161196527305556
-0.137991517891913,-0.156362542930556
-0.137991517891914,-0.178921136680556
0.0747037946080871,-0.166836175743056
0.0650358258580872,-0.166836175743056
0.0577848492955874,-0.159585199180557
0.0674528180455871,-0.183755121055557
0.122237974295587,-0.190200433555556
0.0964567242955866,-0.186172113243056
0.135934263358087,-0.170058831993056
0.147213560233086,-0.173281488243056
0.116598325858087,-0.170058831993056
0.161715513358086,-0.129775628868056
0.156075864920587,-0.129775628868056
0.126266294608087,-0.145888910118056
0.104513364920587,-0.195034417930557
0.186691099295587,-0.155556878868056
0.144796568045587,-0.173281488243056
0.151241880545586,-0.0757961366805565
0.160104185233087,-0.152334222618057
0.160104185233087,-0.224843988243056
0.160909849295587,-0.161196527305556
0.117403989920587,-0.239345941368056
0.148824888358088,-0.148305902305557
0.0763151227330866,-0.186172113243056
0.124654966483087,-0.160390863243056
0.0545621930455864,-0.195034417930556
0.102902036795587,-0.120107660118056
0.160104185233087,-0.156362542930556
0.106930357108087,-0.302187738243056
0.103707700858087,-0.161196527305556
-0.0203645647669131,-0.209536371055557
-0.164578431954414,-0.219204339805556
-0.142019838204413,-0.171670160118056
-0.0993196428919134,-0.202285394493056
-0.0316438616419124,-0.210342035118056
0.0424772321080867,-0.247402581993056
0.0408659039830881,-0.231289300743056
0.00863934148308732,-0.202285394493056
0.00380535710808691,-0.242568597618056
0.0311979352330865,-0.196645746055556
-0.00425128351691244,-0.191006097618056
-0.0115022600794132,-0.186172113243056
0.00380535710808733,-0.259487542930556
0.0142789899205857,-0.207119378868056
0.0311979352330876,-0.229677972618056
-0.000222963204413509,-0.196645746055557
-0.071121400704413,-0.283657464805556
-0.204861635079413,-0.138637933555556
-0.255618471016913,-0.285268792930556
-0.175052064766913,-0.156362542930557
-0.00827960382941258,-0.244985589805556
0.0553678571080864,-0.267544183555556
0.070675474295587,-0.212759027305556
0.0706754742955868,-0.215176019493056
0.0763151227330876,-0.234511956993056
0.0706754742955862,-0.253847894493056
0.0602018414830875,-0.235317621055556
0.054562193045587,-0.194228753868056
0.122237974295587,-0.311855706993056
0.113375669608086,-0.176504144493056
0.102096372733087,-0.259487542930556
0.0706754742955862,-0.302187738243056
-0.0155305803919127,-0.357778558555556
-0.128323549141913,-0.169253167930556
-0.125906556954413,-0.245791253868056
-0.136380189766913,-0.216787347618056
-0.104153627266913,-0.232900628868056
-0.108987611641913,-0.207925042930556
-0.0582307757044128,-0.211953363243056
-0.0243928850794128,-0.375503167930556
-0.038089174141913,-0.165224847618056
-0.0501741350794134,-0.267544183555556
-0.0243928850794131,-0.216787347618056
0.0376432477330863,-0.245791253868056
0.0400602399205876,-0.229677972618056
-0.00263995539191348,-0.276406488243056
0.0610075055455875,-0.261904535118056
0.0400602399205864,-0.233706292930556
0.0400602399205867,-0.273183831993057
0.0199186383580871,-0.197451410118056
0.0247526227330874,-0.284463128868056
0.227779966483087,-0.292519769493056
0.178634458670587,-0.229677972618056
0.168160825858087,-0.247402581993056
0.116598325858087,-0.270766839805556
0.125460630545587,-0.223232660118056
0.172189146170588,-0.200674066368056
0.0964567242955863,-0.207925042930556
0.184274107108088,-0.261904535118056
0.179440122733087,-0.211953363243056
0.119820982108087,-0.218398675743056
0.118209653983087,-0.207119378868056
0.0916227399205878,-0.236928949180556
0.0738981305455865,-0.222426996055556
0.0835660992955872,-0.258681878868056
0.0787321149205869,-0.197451410118056
0.0900114117955871,-0.228066644493056
0.0795377789830872,-0.246596917930557
0.235030943045587,-0.208730706993056
0.141573911795586,-0.236928949180556
0.129488950858087,-0.193423089805556
0.142379575858087,-0.259487542930556
0.206027036795587,-0.166030511680556
0.119015318045587,-0.273183831993056
0.0827604352330872,-0.209536371055556
0.00219402898308657,-0.261904535118057
0.0271696149205872,-0.254653558555556
0.0328092633580871,-0.244985589805557
0.0529508649205874,-0.290102777305556
-0.0243928850794132,-0.233706292930556
0.0384489117955868,-0.273989496055556
-0.0251985491419132,-0.237734613243056
-0.0413118303919133,-0.259487542930556
-0.0235872210169132,-0.269961175743056
0.0279752789830869,-0.207925042930556
0.0150846539830865,-0.246596917930556
0.0714811383580873,-0.207925042930556
-0.0211702288294131,-0.266738519493056
0.108541685233088,-0.236928949180556
0.143185239920586,-0.207925042930557
0.176217466483088,-0.160390863243056
0.203610044608087,-0.179726800743056
0.187496763358087,-0.186977777305557
0.181857114920586,-0.163613519493056
0.189913755545587,-0.179726800743056
0.171383482108087,-0.182143792930556
0.200387388358087,-0.186172113243056
0.0771207867955862,-0.154751214805556
0.105319028983087,-0.172475824180557
0.0537565289830864,-0.142666253868057
0.0456998883580876,-0.156362542930556
0.0183073102330861,-0.130581292930556
0.00299969304558761,-0.179726800743056
-0.026809877266913,-0.112856683555556
-0.0260042132044126,-0.189394769493056
-0.0388948382044134,-0.118496331993056
-0.0123079241419123,-0.130581292930556
-0.00586261164191381,-0.143471917930556
0.0408659039830876,-0.109634027305556
-0.0155305803919133,-0.163613519493056
0.0432828961705871,-0.0830471132430558
0.0408659039830862,-0.161196527305556
0.056979185233087,-0.114468011680556
0.0142789899205868,-0.115273675743056
-0.0276155413294126,-0.128969964805556
-0.0759553850794136,-0.116885003868056
-0.0993196428919128,-0.113662347618056
-0.112210267891913,-0.079018792930556
-0.0969026507044126,-0.129775628868056
-0.121878236641913,-0.122524652305556
-0.129934877266913,-0.118496331993056
-0.112210267891913,-0.0943264101180561
-0.0638704241419122,-0.166836175743056
-0.0888460100794135,-0.128969964805556
-0.0372835100794121,-0.116885003868056
-0.0429231585169133,-0.0951320741805557
-0.0235872210169125,-0.104800042930556
-0.0171419085169137,-0.156362542930556
0.00299969304558661,-0.103188714805556
-0.0284212053919139,-0.143471917930556
-0.0356721819544135,-0.132192621055556
-0.0461458147669134,-0.108022699180557
-0.0235872210169126,-0.108828363243056
-0.0268098772669137,-0.117690667930556
-0.0372835100794128,-0.163613519493056
-0.0872346819544132,-0.141054925743056
-0.125906556954413,-0.141054925743056
-0.191971010079413,-0.140249261680556
-0.245950502266913,-0.131386956993056
-0.311209291329413,-0.132998285118056
-0.299124330391913,-0.118496331993056
-0.309597963204413,-0.176504144493056
-0.303958314766912,-0.105605706993056
-0.307180971016913,-0.170864496055556
-0.287845033516913,-0.169253167930556
-0.303958314766913,-0.157973871055556
-0.361966127266913,-0.208730706993056
-0.342630189766913,-0.0878810976180567
-0.278177064766913,-0.171670160118056
-0.338601869454414,-0.167641839805556
-0.260452455391913,-0.153945550743056
-0.241922181954413,-0.150722894493056
-0.243533510079412,-0.183755121055556
-0.263675111641914,-0.184560785118056
-0.263675111641913,-0.186977777305556
-0.250784486641913,-0.186977777305556
-0.230642885079413,-0.131386956993056
-0.219363588204414,-0.153945550743056
-0.225003236641913,-0.203896722618056
-0.247561830391913,-0.167641839805556
-0.202444642891913,-0.144277581993056
-0.229837221016914,-0.145083246055556
-0.220169252266913,-0.148305902305556
-0.216946596016913,-0.203896722618056
-0.191971010079413,-0.224843988243056
-0.215335267891913,-0.148305902305556
-0.165384096016912,-0.174892816368056
-0.0735383928919131,-0.184560785118056
-0.0678987444544126,-0.174087152305556
-0.0678987444544136,-0.184560785118056
-0.0372835100794127,-0.179726800743056
-0.0010286272669137,-0.178115472618056
0.0166959821080877,-0.260293206993056
0.0344205914830861,-0.182143792930556
0.0102506696080869,-0.114468011680556
0.029586607108086,-0.207925042930556
0.026363950858087,-0.189394769493056
0.0287809430455867,-0.213564691368056
0.00702801335808702,-0.197451410118056
0.0295866071080865,-0.215176019493056
0.030392271170587,-0.163613519493056
0.0448942242955869,-0.211953363243056
0.00380535710808718,-0.145888910118056
0.0215299664830871,-0.220010003868056
-0.0372835100794125,-0.149111566368056
0.0142789899205861,-0.246596917930556
-0.0115022600794121,-0.203091058555556
0.0279752789830865,-0.193423089805556
-0.00425128351691221,-0.213564691368056
-0.0493684710169133,-0.179726800743056
-0.100125306954412,-0.161196527305556
-0.125100892891914,-0.196645746055556
-0.136380189766913,-0.215176019493056
-0.179080385079414,-0.233706292930556
-0.0493684710169132,-0.224038324180556
-0.0630647600794136,-0.168447503868056
-0.0542024553919125,-0.178115472618056
-0.00102862726691414,-0.195034417930556
-0.0115022600794122,-0.233706292930556
0.0456998883580869,-0.203896722618056
0.052950864920587,-0.207925042930556
0.0666471539830865,-0.174087152305556
0.0360319196080868,-0.161196527305556
-0.0163362444544128,-0.196645746055557
0.0537565289830873,-0.232094964805556
0.139156919608087,-0.157973871055556
0.0440885602330877,-0.238540277305556
0.117403989920586,-0.182143792930556
0.111764341483087,-0.182143792930557
0.141573911795587,-0.181338128868056
0.0940397321080867,-0.159585199180556
0.181051450858087,-0.172475824180557
0.176217466483087,-0.144277581993056
0.179440122733086,-0.156362542930556
0.194747739920587,-0.168447503868056
0.160909849295587,-0.163613519493056
0.102902036795588,-0.128164300743056
0.109347349295586,-0.105605706993056
0.143990903983088,-0.156362542930556
0.119820982108087,-0.162002191368056
0.0875944196080876,-0.105605706993056
0.129488950858085,-0.142666253868056
0.116598325858087,-0.0991603944930561
0.116598325858087,-0.0919094179305563
0.110153013358087,-0.145888910118056
0.119820982108087,-0.0951320741805559
0.0730924664830866,-0.115273675743056
0.125460630545586,-0.132998285118056
0.129488950858087,-0.0298732851180562
0.126266294608086,-0.155556878868056
0.189913755545587,-0.100771722618056
0.106930357108087,-0.115273675743056
0.122237974295588,-0.0669338319930562
0.155270200858087,-0.145888910118056
0.103707700858088,-0.0540432069930564
0.117403989920586,-0.0717678163680564
0.0916227399205872,-0.166836175743056
0.104513364920586,-0.124135980430556
0.0618131696080872,-0.112051019493056
0.0618131696080864,-0.123330316368056
0.100485044608087,-0.179726800743056
0.0610075055455871,-0.142666253868056
0.0666471539830875,-0.135415277305556
0.0924284039830865,-0.174087152305556
0.0658414899205871,-0.113662347618056
0.0843717633580868,-0.128164300743056
0.194747739920587,-0.133803949180556
0.105319028983087,-0.163613519493056
0.0827604352330874,-0.152334222618057
0.0771207867955862,-0.203091058555556
0.0940397321080879,-0.174087152305556
0.0932340680455859,-0.128164300743056
0.0924284039830878,-0.130581292930556
0.100485044608087,-0.231289300743056
0.0795377789830875,-0.0919094179305563
0.107736021170587,-0.207925042930556
0.0722868024205871,-0.203896722618056
0.0714811383580867,-0.120107660118056
0.0231412946080868,-0.142666253868057
-0.00586261164191334,-0.136220941368056
-0.0260042132044124,-0.158779535118057
-0.0364778460169133,-0.207925042930556
-0.0380891741419124,-0.236928949180556
-0.00908526789191338,-0.128969964805556
-0.0066682757044129,-0.172475824180556
-0.0260042132044137,-0.195034417930556
-0.00586261164191289,-0.215176019493056
0.00380535710808659,-0.151528558555557
-0.0026399553919126,-0.207925042930556
0.0142789899205863,-0.186172113243056
-0.0421174944544128,-0.178921136680556
-0.0260042132044138,-0.150722894493056
-0.129129213204413,-0.203091058555557
-0.0300325335169134,-0.112051019493056
-0.0461458147669133,-0.178921136680556
-0.0372835100794135,-0.166836175743056
-0.0614534319544133,-0.130581292930556
-0.0630647600794135,-0.184560785118056
-0.0896516741419131,-0.183755121055556
-0.0388948382044131,-0.176504144493056
-0.0678987444544124,-0.203896722618056
-0.0670930803919132,-0.170058831993056
-0.0799837053919121,-0.117690667930556
-0.0348665178919133,-0.231289300743056
-0.0775667132044127,-0.222426996055556
-0.0670930803919139,-0.135415277305556
-0.0759553850794129,-0.153139886680556
-0.0678987444544126,-0.138637933555556
-0.0848176897669134,-0.194228753868056
-0.0622590960169132,-0.205508050743056
-0.0767610491419131,-0.145888910118056
0.0199186383580863,-0.212759027305557
-0.0791780413294126,-0.232900628868056
-0.0654817522669131,-0.104800042930556
-0.0872346819544125,-0.167641839805556
-0.0227815569544128,-0.184560785118057
-0.0131135882044129,-0.192617425743056
0.00461102117058643,-0.191006097618056
0.00944500554558701,-0.234511956993056
0.0279752789830864,-0.195840081993056
-0.00263995539191263,-0.176504144493056
-0.0106965960169137,-0.197451410118056
-0.0211702288294132,-0.129775628868056
0.0142789899205863,-0.265127191368056
-0.0139192522669128,-0.166836175743057
-0.0115022600794131,-0.179726800743056
-0.0106965960169124,-0.204702386680556
-0.0115022600794135,-0.112051019493056
-0.0477571428919125,-0.189394769493056
-0.00586261164191334,-0.213564691368056
-0.0340608538294127,-0.156362542930556
-0.00747393976691305,-0.242568597618056
0.00622234929558768,-0.153945550743056
0.0183073102330866,-0.207925042930556
-0.00425128351691237,-0.132192621055556
-0.0115022600794134,-0.246596917930556
0.00863934148308758,-0.187783441368056
0.0400602399205866,-0.132998285118056
0.0247526227330878,-0.179726800743056
0.0747037946080864,-0.164419183555556
0.0352262555455872,-0.202285394493056
0.0287809430455864,-0.233706292930556
0.0118619977330871,-0.150722894493056
0.0199186383580869,-0.185366449180556
-0.0235872210169128,-0.191811761680556
-0.0171419085169135,-0.158779535118056
-0.0590364397669121,-0.135415277305556
-0.00666827570441274,-0.160390863243056
-0.0187532366419127,-0.139443597618056
-0.0348665178919135,-0.182143792930556
-0.0622590960169127,-0.145888910118056
-0.062259096016913,-0.167641839805556
-0.0372835100794129,-0.116079339805556
-0.00102862726691388,-0.143471917930556
0.00702801335808733,-0.157168206993056
0.0150846539830864,-0.122524652305556
0.0166959821080871,-0.112051019493056
0.0142789899205867,-0.136220941368056
0.0102506696080869,-0.115273675743056
0.0537565289830868,-0.119301996055556
0.0295866071080874,-0.130581292930556
0.0658414899205865,-0.119301996055556
0.0400602399205873,-0.101577386680556
0.0553678571080867,-0.0878810976180564
0.0585905133580876,-0.0790187929305558
0.050533872733086,-0.0854641054305559
0.0400602399205875,-0.079018792930556
0.043282896170587,-0.0782131288680558
0.0279752789830876,-0.0790187929305565
0.0448942242955866,-0.0604885194930561
0.0328092633580873,-0.156362542930556
0.0634244977330866,-0.0604885194930562
-0.0678987444544128,-0.100771722618056
-0.0203645647669135,-0.0846584413680559
-0.0509797991419128,-0.0306789491805563
-0.0397005022669135,-0.103188714805557
-0.0493684710169129,-0.0532375429305565
-0.0364778460169129,-0.0878810976180558
-0.0670930803919127,-0.0999660585555566
-0.049368471016913,-0.0902980898055564
-0.0550081194544127,-0.0919094179305561
-0.0429231585169134,-0.142666253868056
-0.0388948382044129,-0.118496331993056
-0.0493684710169135,-0.0572658632430563
-0.0445344866419133,-0.0669338319930564
-0.0445344866419139,-0.156362542930556
-0.042117494454413,-0.112856683555556
-0.0727327288294135,-0.131386956993056
-0.0848176897669131,-0.104800042930557
-0.195999330391913,-0.116885003868056
-0.315237611641913,-0.132998285118056
-0.368411439766914,-0.113662347618056
-0.333767885079412,-0.154751214805556
-0.319265931954413,-0.103994378868056
-0.291067689766913,-0.153945550743056
-0.255618471016913,-0.148305902305556
-0.219363588204412,-0.103994378868056
-0.200833314766914,-0.130581292930556
-0.207278627266913,-0.116079339805556
-0.206472963204414,-0.134609613243056
-0.118655580391913,-0.137026605430556
-0.0969026507044136,-0.126552972618056
-0.100930971016913,-0.143471917930556
-0.0380891741419135,-0.124941644493056
0.0166959821080872,-0.150722894493057
0.0408659039830861,-0.107217035118056
0.0666471539830868,-0.0943264101180563
0.0585905133580868,-0.147500238243056
0.0521452008580868,-0.137832269493056
0.0223356305455862,-0.154751214805556
0.0440885602330875,-0.112856683555556
0.0585905133580871,-0.156362542930556
0.0730924664830866,-0.131386956993056
0.0835660992955865,-0.118496331993056
0.118209653983087,-0.112051019493056
0.139156919608087,-0.105605706993056
0.097262388358087,-0.130581292930556
0.0714811383580868,-0.117690667930555
0.0618131696080873,-0.0894924257430562
0.0424772321080867,-0.117690667930556
0.090011411795587,-0.126552972618057
0.0884000836705868,-0.119301996055556
-0.0775667132044132,-0.124941644493056
-0.453811830391913,-0.129775628868056
-0.630252260079413,-0.143471917930556
-0.705179017891914,-0.130581292930556
-0.682620424141913,-0.0862697694930562
-0.706790346016913,-0.152334222618056
-0.639114564766912,-0.124941644493056
-0.573050111641914,-0.129775628868056
-0.521487611641912,-0.156362542930556
-0.432864564766913,-0.156362542930556
-0.419973939766912,-0.154751214805556
-0.421585267891913,-0.170058831993056
-0.424002260079412,-0.126552972618056
-0.401443666329413,-0.145083246055556
-0.474759096016913,-0.134609613243056
-0.486844056954413,-0.141860589805556
-0.527127260079413,-0.172475824180557
-0.546463197579413,-0.131386956993056
-0.544851869454412,-0.156362542930557
-0.557742494454414,-0.130581292930556
-0.534378236641912,-0.157973871055556
-0.428836244454413,-0.190200433555556
-0.466702455391913,-0.0822414491805562
-0.473953431954413,-0.144277581993056
-0.441726869454412,-0.139443597618056
-0.384524721016914,-0.0919094179305568
-0.191165346016913,-0.156362542930556
-0.116238588204414,-0.142666253868056
-0.113015931954412,-0.137832269493056
-0.128323549141913,-0.119301996055556
-0.112210267891913,-0.181338128868057
-0.102542299141913,-0.110439691368056
-0.0461458147669132,-0.215981683555556
-0.0832063616419129,-0.130581292930556
-0.0832063616419122,-0.156362542930556
-0.0799837053919135,-0.182143792930556
-0.0920686663294129,-0.129775628868056
-0.107376283516913,-0.155556878868056
-0.0727327288294123,-0.142666253868056
-0.103347963204413,-0.145888910118056
-0.0630647600794125,-0.170058831993056
-0.109793275704414,-0.143471917930556
-0.0896516741419126,-0.155556878868056
-0.162161439766913,-0.166836175743056
-0.162161439766913,-0.130581292930556
-0.191971010079414,-0.143471917930556
-0.166995424141913,-0.164419183555557
-0.155716127266913,-0.104800042930556
-0.118655580391913,-0.186977777305556
-0.134768861641914,-0.106411371055556
-0.104959291329413,-0.147500238243056
-0.125906556954414,-0.149111566368056
-0.096902650704412,-0.157168206993056
-0.101736635079413,-0.147500238243056
-0.0888460100794129,-0.139443597618056
-0.118655580391914,-0.132192621055556
-0.0888460100794129,-0.156362542930556
-0.0880403460169134,-0.130581292930556
-0.0759553850794131,-0.157168206993056
-0.0848176897669133,-0.109634027305556
-0.0630647600794128,-0.137832269493056
-0.0558137835169128,-0.115273675743057
-0.100930971016913,-0.138637933555556
-0.088846010079413,-0.173281488243056
-0.0517854632044126,-0.0862697694930562
-0.0397005022669131,-0.142666253868056
-0.0461458147669128,-0.140249261680556
-0.0574251116419135,-0.103994378868056
-0.0292268694544128,-0.178115472618056
-0.0783723772669129,-0.149111566368056
-0.0678987444544126,-0.105605706993056
-0.0630647600794133,-0.0894924257430561
-0.0163362444544124,-0.181338128868056
-0.0453401507044138,-0.108022699180556
-0.0493684710169124,-0.157973871055556
-0.140408510079413,-0.0927150819930563
-0.0380891741419125,-0.166030511680556
-0.0759553850794128,-0.130581292930556
-0.0388948382044127,-0.134609613243056
-0.0356721819544136,-0.0911037538680562
-0.0227815569544131,-0.207119378868056
-0.048562806954413,-0.0516262148055565
-0.0115022600794129,-0.141054925743056
-0.046145814766914,-0.105605706993056
-0.0203645647669123,-0.156362542930556
-0.028421205391913,-0.0959377382430562
-0.0227815569544129,-0.149111566368056
-0.0268098772669135,-0.123330316368056
0.00461102117058731,-0.104800042930556
-0.0380891741419138,-0.160390863243056
-0.00747393976691258,-0.0911037538680565
0.0175016461705866,-0.135415277305556
0.00863934148308708,-0.156362542930556
-0.0123079241419134,-0.103994378868056
-0.0163362444544128,-0.130581292930556
-0.0413118303919129,-0.124941644493056
-0.0195589007044125,-0.134609613243056
0.00944500554558667,-0.124941644493056
0.0110563336705868,-0.107217035118056
-0.0372835100794137,-0.105605706993056
-0.041311830391913,-0.113662347618056
-0.0590364397669127,-0.165224847618056
-0.0227815569544126,-0.104800042930556
-0.0606477678919132,-0.137832269493056
-0.0614534319544126,-0.123330316368056
-0.156521791329413,-0.130581292930556
-0.166995424141912,-0.133803949180556
-0.177469056954413,-0.120107660118056
-0.170218080391913,-0.132192621055556
-0.336184877266914,-0.104800042930556
-0.548074525704413,-0.125747308555556
-0.603665346016913,-0.104800042930556
-0.552908510079413,-0.125747308555556
-0.560159486641913,-0.129775628868057
-0.540017885079413,-0.130581292930557
-0.536795228829413,-0.0919094179305558
-0.482815736641912,-0.137832269493056
-0.492483705391913,-0.0967434023055558
-0.424002260079413,-0.128969964805556
-0.392581361641914,-0.112856683555556
-0.332156556954412,-0.0806301210555559
-0.324905580391913,-0.130581292930556
-0.294290346016913,-0.0919094179305562
-0.287845033516913,-0.0894924257430562
-0.277371400704412,-0.134609613243056
-0.256424135079413,-0.143471917930556
-0.225808900704413,-0.142666253868056
-0.205667299141913,-0.0935207460555556
-0.190359681954413,-0.120107660118056
-0.206472963204413,-0.132192621055556
-0.197610658516913,-0.0790187929305559
-0.241116517891914,-0.207925042930556
-0.258841127266913,-0.0540432069930559
-0.303958314766913,-0.130581292930556
-0.214529603829412,-0.123330316368056
-0.260452455391913,-0.137832269493056
-0.253201478829412,-0.128969964805556
-0.230642885079413,-0.152334222618057
-0.219363588204413,-0.0878810976180566
-0.240310853829413,-0.113662347618056
-0.270926088204412,-0.148305902305556
-0.304763978829413,-0.158779535118056
-0.297513002266913,-0.106411371055556
-0.295096010079414,-0.181338128868056
-0.270120424141913,-0.0919094179305567
-0.266897767891913,-0.145888910118056
-0.293484681954412,-0.116079339805557
-0.266897767891914,-0.138637933555556
-0.210501283516912,-0.156362542930557
-0.218557924141913,-0.0846584413680563
-0.213723939766913,-0.147500238243056
-0.226614564766914,-0.141860589805556
-0.187942689766912,-0.197451410118056
-0.181497377266914,-0.0919094179305566
-0.147659486641912,-0.156362542930556
-0.166995424141914,-0.125747308555556
-0.171023744454412,-0.151528558555556
-0.140408510079413,-0.137832269493056
-0.213723939766913,-0.130581292930557
-0.206472963204413,-0.170058831993056
-0.283816713204413,-0.116885003868056
-0.318460267891913,-0.152334222618056
-0.371634096016912,-0.125747308555556
-0.355520814766914,-0.113662347618056
-0.362771791329413,-0.153945550743056
-0.353909486641913,-0.149111566368056
-0.305569642891912,-0.130581292930556
-0.322488588204414,-0.156362542930556
-0.336184877266913,-0.119301996055556
-0.310403627266914,-0.138637933555556
-0.245144838204412,-0.154751214805556
-0.283816713204413,-0.123330316368056
-0.299124330391912,-0.156362542930557
-0.266897767891914,-0.156362542930556
-0.265286439766913,-0.132998285118056
-0.192776674141913,-0.182143792930556
-0.170218080391913,-0.135415277305556
-0.230642885079414,-0.116885003868056
-0.243533510079413,-0.154751214805556
-0.183914369454414,-0.143471917930556
-0.140408510079412,-0.152334222618056
-0.0888460100794126,-0.143471917930556
-0.0461458147669129,-0.179726800743056
-0.00908526789191381,-0.156362542930556
0.0400602399205872,-0.0927150819930562
0.127877622733087,-0.178115472618056
0.161715513358086,-0.104800042930556
0.229391294608086,-0.174892816368056
0.258395200858087,-0.141054925743056
0.306735044608087,-0.137026605430556
0.315597349295587,-0.161196527305556
0.338961607108087,-0.152334222618056
0.347018247733087,-0.143471917930556
0.380050474295587,-0.135415277305556
0.351046568045587,-0.145888910118056
0.371188169608086,-0.156362542930556
0.264034849295587,-0.149111566368056
0.400997739920587,-0.142666253868056
0.392135435233087,-0.106411371055556
0.438863950858086,-0.125747308555556
0.426778989920588,-0.104800042930556
0.450143247733086,-0.130581292930556
0.446920591483087,-0.144277581993056
0.482369810233087,-0.153139886680556
0.471090513358088,-0.169253167930556
0.489620786795587,-0.150722894493056
0.399386411795587,-0.125747308555556
0.496066099295586,-0.104800042930556
0.463033872733086,-0.152334222618056
0.493649107108086,-0.150722894493056
0.495260435233087,-0.126552972618056
0.550045591483086,-0.117690667930556
0.512985044608087,-0.128164300743056
0.570992857108086,-0.138637933555556
0.504122739920587,-0.153945550743056
0.572604185233086,-0.116885003868056
0.535543638358087,-0.145888910118056
0.568575864920586,-0.139443597618056
0.547628599295587,-0.139443597618056
0.550045591483086,-0.139443597618056
0.413082700858086,-0.141054925743056
0.487203794608086,-0.118496331993056
0.512985044608087,-0.146694574180556
0.566158872733087,-0.153945550743056
0.516207700858087,-0.103188714805556
0.541988950858086,-0.158779535118056
0.514596372733087,-0.117690667930556
0.529098325858087,-0.112051019493056
0.541988950858087,-0.149111566368056
0.550045591483087,-0.132998285118056
0.533932310233087,-0.101577386680556
0.591940122733087,-0.131386956993056
0.590328794608088,-0.134609613243056
0.607247739920586,-0.149111566368056
0.651559263358087,-0.109634027305556
0.633028989920586,-0.141054925743055
0.603219419608087,-0.115273675743056
0.658810239920586,-0.124941644493056
0.617721372733087,-0.130581292930556
0.551656919608086,-0.166836175743056
0.586300474295586,-0.112051019493057
0.596774107108086,-0.130581292930556
0.566158872733087,-0.120107660118056
0.560519224295586,-0.108828363243056
0.432418638358088,-0.108828363243056
0.551656919608086,-0.130581292930556
0.512179380545586,-0.150722894493056
0.555685239920586,-0.0886867616805561
0.503317075858087,-0.0999660585555564
0.512985044608087,-0.121718988243057
0.478341489920587,-0.136220941368056
0.465450864920586,-0.103994378868056
0.444503599295587,-0.141054925743056
0.467867857108087,-0.156362542930556
0.411471372733086,-0.0999660585555568
0.417916685233087,-0.141054925743056
0.396969419608086,-0.095937738243056
0.416305357108086,-0.136220941368057
0.392135435233087,-0.106411371055556
0.405026060233086,-0.104800042930556
0.316403013358086,-0.137832269493056
0.325265318045587,-0.125747308555556
0.284176450858087,-0.129775628868056
0.224557310233087,-0.106411371055556
0.172994810233087,-0.203896722618056
0.200387388358087,-0.0790187929305563
0.168160825858088,-0.132998285118056
0.125460630545586,-0.142666253868056
0.117403989920587,-0.130581292930556
0.146407896170587,-0.132192621055556
0.129488950858087,-0.170058831993056
0.117403989920586,-0.131386956993056
0.102096372733087,-0.0911037538680561
0.128683286795586,-0.120107660118057
0.0956510602330876,-0.128969964805556
0.115792661795586,-0.167641839805556
0.117403989920587,-0.130581292930556
0.232613950858087,-0.104800042930556
0.123043638358087,-0.112051019493056
0.123043638358086,-0.170058831993056
0.112570005545588,-0.079018792930556
0.137545591483086,-0.105605706993056
0.109347349295587,-0.0838527773055565
0.114986997733087,-0.152334222618056
0.096456724295587,-0.107217035118056
0.0924284039830862,-0.112856683555556
0.0940397321080871,-0.133803949180556
0.104513364920587,-0.103188714805556
0.177023130545587,-0.174087152305556
0.115792661795586,-0.100771722618056
0.0932340680455867,-0.0894924257430563
0.0996793805455875,-0.127358636680556
0.0972623883580872,-0.155556878868056
0.117403989920587,-0.0782131288680562
0.0795377789830874,-0.0798244569930568
0.0787321149205862,-0.155556878868056
0.0311979352330876,-0.0959377382430563
0.0505338727330864,-0.0919094179305561
0.065841489920588,-0.141054925743056
0.0545621930455866,-0.149111566368056
0.0400602399205874,-0.0991603944930565
0.0489225446080865,-0.137832269493056
0.0497282086705868,-0.0975490663680564
0.171383482108086,-0.166836175743056
0.0714811383580866,-0.0693508241805565
0.109347349295586,-0.106411371055556
0.0892057477330873,-0.0927150819930563
0.0787321149205861,-0.116079339805556
0.0473112164830875,-0.0838527773055563
-0.0646760882044134,-0.153945550743056
0.0489225446080869,-0.0790187929305561
0.0424772321080867,-0.128969964805556
0.045699888358087,-0.0999660585555564
0.0730924664830868,-0.165224847618056
0.0392545758580871,-0.0749904726180562
0.044088560233087,-0.104800042930556
0.0328092633580878,-0.122524652305556
0.0392545758580866,-0.128969964805556
0.0553678571080866,-0.130581292930557
0.0529508649205873,-0.166836175743056
0.0215299664830868,-0.194228753868056
0.0263639508580866,-0.129775628868056
0.0142789899205869,-0.0419582460555559
-0.0243928850794137,-0.128164300743056
0.0215299664830871,-0.0637111757430564
0.0328092633580866,-0.073379144493056
0.0352262555455875,-0.113662347618056
0.0303922711705863,-0.181338128868056
0.0271696149205874,-0.0540432069930566
0.0400602399205871,-0.153139886680556
0.0150846539830874,-0.114468011680557
0.0142789899205858,-0.128164300743056
-0.0115022600794128,-0.0935207460555561
0.0102506696080871,-0.166836175743056
-0.014724916329413,-0.0911037538680564
-0.00586261164191373,-0.182143792930556
0.164938169608087,-0.116079339805556
0.139962583670587,-0.0790187929305566
0.0352262555455871,-0.178115472618056
0.0448942242955862,-0.057265863243056
0.00380535710808782,-0.129775628868056
-0.0735383928919129,-0.155556878868056
0.0046110211705871,-0.0669338319930563
0.0118619977330867,-0.104800042930556
0.010250669608087,-0.130581292930556
-0.000222963204413477,-0.0838527773055565
-0.0115022600794126,-0.0798244569930565
0.0263639508580862,-0.132192621055556
-0.0195589007044127,-0.130581292930556
0.0038053571080862,-0.0862697694930558
0.0400602399205871,-0.123330316368057
0.0118619977330871,-0.119301996055556
0.018307310233087,-0.150722894493056
0.0183073102330863,-0.123330316368056
0.0271696149205872,-0.144277581993056
-0.016336244454413,-0.103994378868056
0.0142789899205868,-0.141054925743056
0.0199186383580874,-0.108022699180556
0.00944500554558766,-0.115273675743056
0.0150846539830866,-0.121718988243056
0.0376432477330877,-0.132192621055556
0.00138836492058617,-0.0951320741805563
-0.0010286272669125,-0.116885003868056
0.0295866071080865,-0.124941644493056
0.0142789899205874,-0.116079339805557
0.0231412946080868,-0.130581292930556
0.0166959821080872,-0.132998285118056
-0.00908526789191361,-0.0878810976180563
0.0239469586705867,-0.141860589805556
0.0384489117955866,-0.114468011680557
0.107736021170587,-0.123330316368056
0.0392545758580863,-0.0999660585555562
0.0142789899205872,-0.130581292930556
-0.0123079241419133,-0.116079339805556
0.00461102117058678,-0.116885003868056
-0.0219758928919138,-0.112051019493056
-0.00344561945441215,-0.132998285118056
-0.0243928850794136,-0.118496331993056
-0.0203645647669124,-0.133803949180556
-0.0558137835169129,-0.112051019493056
-0.0525911272669125,-0.130581292930556
-0.0703157366419137,-0.121718988243056
-0.0646760882044124,-0.125747308555556
-0.092874330391913,-0.121718988243056
-0.0993196428919128,-0.119301996055556
-0.128323549141913,-0.128164300743057
-0.129129213204413,-0.147500238243056
-0.158133119454413,-0.121718988243056
-0.168606752266913,-0.145888910118056
-0.166189760079413,-0.130581292930556
-0.0767610491419125,-0.153945550743056
-0.153299135079413,-0.132192621055556
-0.148465150704412,-0.115273675743056
-0.142825502266913,-0.124941644493056
-0.125906556954412,-0.144277581993056
-0.148465150704414,-0.178115472618056
-0.105764955391913,-0.138637933555556
-0.152493471016913,-0.136220941368056
-0.0888460100794129,-0.154751214805556
-0.140408510079414,-0.156362542930556
-0.135574525704413,-0.104800042930556
-0.0630647600794136,-0.155556878868057
-0.136380189766913,-0.130581292930556
-0.127517885079414,-0.146694574180556
-0.0993196428919121,-0.153139886680556
-0.128323549141913,-0.126552972618056
-0.126712221016913,-0.166030511680556
-0.143631166329413,-0.137832269493056
-0.151687806954412,-0.130581292930556
-0.166995424141914,-0.141054925743056
-0.147659486641912,-0.131386956993056
-0.140408510079413,-0.116885003868056
-0.148465150704413,-0.138637933555556
-0.156521791329414,-0.114468011680556
-0.128323549141913,-0.198257074180556
-0.0558137835169129,-0.104800042930556
-0.186331361641912,-0.117690667930556
-0.150882142891914,-0.137832269493056
-0.135574525704413,-0.110439691368056
-0.136380189766913,-0.154751214805556
-0.107376283516913,-0.143471917930556
-0.129129213204413,-0.0894924257430562
-0.113821596016913,-0.118496331993056
-0.122683900704414,-0.100771722618056
-0.118655580391912,-0.136220941368056
-0.171829408516913,-0.126552972618056
-0.0888460100794122,-0.0959377382430558
-0.125100892891913,-0.120107660118056
-0.0993196428919123,-0.0927150819930565
-0.0920686663294133,-0.120107660118056
-0.055813783516913,-0.115273675743056
-0.0904573382044138,-0.130581292930556
-0.0960969866419136,-0.121718988243056
-0.0888460100794137,-0.103188714805556
-0.0719270647669123,-0.110439691368057
-0.0848176897669135,-0.112051019493056
-0.0614534319544128,-0.118496331993056
-0.075149721016913,-0.104800042930556
-0.0558137835169128,-0.125747308555556
-0.0751497210169133,-0.103994378868056
-0.0501741350794131,-0.104800042930556
-0.0735383928919134,-0.115273675743056
-0.0896516741419129,-0.156362542930556
-0.114627260079413,-0.0846584413680561
-0.0832063616419122,-0.115273675743056
-0.0767610491419135,-0.129775628868056
-0.0711214007044129,-0.0943264101180566
-0.100930971016913,-0.0911037538680559
-0.0799837053919134,-0.109634027305556
-0.108987611641913,-0.0878810976180563
-0.100930971016913,-0.132192621055556
-0.101736635079414,-0.0661281679305558
-0.105764955391913,-0.0838527773055562
-0.112210267891913,-0.099160394493056
-0.0960969866419124,-0.144277581993056
-0.126712221016913,-0.0653225038680559
-0.089651674141913,-0.0991603944930562
-0.204861635079413,-0.118496331993056
-0.116238588204412,-0.0774074648055564
-0.137185853829414,-0.122524652305556
-0.00102862726691282,-0.116079339805556
-0.121072572579412,-0.130581292930556
-0.111404603829413,-0.0419582460555564
-0.0969026507044135,-0.152334222618056
-0.0936799944544134,-0.0556545351180563
-0.129129213204413,-0.0532375429305562
-0.0977083147669122,-0.240957269493056
-0.102542299141913,-0.0427639101180561
-0.0622590960169123,-0.0564601991805564
-0.0525911272669131,-0.188589105430556
-0.0542024553919126,-0.0524318788680559
-0.100125306954413,-0.0653225038680563
-0.0477571428919126,-0.139443597618056
-0.0799837053919138,-0.105605706993056
-0.0678987444544128,-0.0927150819930561
-0.0662874163294138,0.0249118711319438
-0.0493684710169131,-0.170864496055556
-0.0630647600794134,-0.210342035118056
-0.00989093195441317,-0.0790187929305564
-0.0372835100794125,-0.0484035585555557
-0.00747393976691301,-0.143471917930556
-0.0316438616419131,-0.130581292930556
-0.011502260079413,-0.145888910118056
-0.0413118303919133,-0.133803949180556
-0.0348665178919124,-0.182949456993056
-0.0243928850794129,-0.130581292930556
-0.00183429132941251,-0.150722894493056
-0.0147249163294137,-0.156362542930556
-0.0171419085169128,-0.105605706993056
-0.0115022600794133,-0.293325433555556
-0.00263995539191224,-0.091909417930556
-0.0098909319544132,-0.194228753868056
0.0908170758580873,-0.144277581993057
0.0126676617955865,-0.220010003868056
0.000582700858087,-0.228066644493056
-0.0759553850794134,-0.141054925743056
0.0215299664830871,-0.298965081993056
0.00219402898308662,-0.120107660118056
0.00380535710808773,-0.155556878868056
-0.00586261164191348,-0.210342035118056
0.0328092633580877,-0.207925042930556
0.0231412946080865,-0.146694574180556
0.0521452008580872,-0.182143792930556
0.0360319196080864,-0.257070550743056
0.0529508649205868,-0.256264886680556
0.00541668523308694,-0.115273675743057
0.0400602399205871,-0.207119378868056
0.0392545758580866,-0.219204339805556
0.0489225446080874,-0.089492425743056
0.0352262555455868,-0.445595941368056
0.0166959821080874,0.0297458555069434
0.0134733258580873,-0.319912347618056
0.0263639508580872,-0.170864496055556
0.0231412946080865,-0.100771722618056
0.052950864920587,-0.182143792930556
0.0311979352330866,-0.209536371055556
0.0392545758580872,-0.0999660585555563
0.0424772321080872,-0.336025628868056
0.0432828961705876,-6.37148055564828e-05
0.0497282086705867,-0.298159417930556
0.0513395367955876,-0.0830471132430563
-0.063870424141913,-0.260293206993056
0.016695982108088,-0.173281488243056
0.00219402898308663,-0.207925042930556
0.0199186383580871,-0.108022699180556
-0.00827960382941249,-0.150722894493056
0.0223356305455869,-0.181338128868056
0.0183073102330862,-0.170864496055556
0.0529508649205869,-0.193423089805556
0.0473112164830866,-0.205508050743056
0.0585905133580876,-0.130581292930556
0.0602018414830865,-0.289297113243056
0.0859830914830877,-0.191006097618056
0.0456998883580872,-0.163613519493056
0.0642301617955874,-0.199062738243056
0.0400602399205864,-0.170864496055556
0.0384489117955874,-0.130581292930556
0.0376432477330862,-0.224843988243057
0.0400602399205877,-0.0943264101180563
0.0191129742955864,-0.189394769493056
0.0448942242955873,-0.167641839805556
0.0400602399205865,-0.182143792930556
0.0424772321080874,-0.207119378868057
0.023141294608087,-0.204702386680556
0.0489225446080871,-0.294936761680556
0.0658414899205866,0.0104099180069439
0.0529508649205872,-0.141860589805556
-0.0260042132044136,-0.218398675743056
0.0529508649205873,0.00396460550694367
0.0658414899205875,-0.428676996055556
0.0545621930455873,-0.0282619569930567
-0.0203645647669137,-0.157973871055556
0.0771207867955872,-0.0637111757430563
0.0545621930455864,-0.211953363243056
0.0513395367955876,-0.116885003868056
0.0191129742955866,-0.207925042930555
0.0062223492955875,-0.258681878868056
-0.0260042132044139,-6.3714805556352e-05
-0.047757142891913,-0.252236566368056
-0.0227815569544137,-0.032290277305556
-0.0397005022669129,-0.215176019493056
-0.0284212053919134,-0.0532375429305564
-0.0606477678919123,-0.116079339805556
-0.0171419085169138,-0.381142816368056
-0.0477571428919119,-0.152334222618056
-0.129934877266913,-0.0862697694930556
-0.0380891741419127,-0.294131097618056
-0.0268098772669132,-0.125747308555556
-0.0203645647669125,-0.130581292930556
0.00863934148308709,-0.112051019493057
-0.0243928850794126,-0.216787347618056
-0.0300325335169133,-0.0959377382430563
-0.0251985491419127,-0.021816644493056
-0.0235872210169129,-0.195034417930556
-0.0356721819544128,-0.233706292930556
-0.00827960382941302,-0.034707269493056
-0.0292268694544131,-0.173281488243056
-0.0324495257044135,-0.000869378868056365
-0.037283510079413,-0.208730706993056
-0.0139192522669133,0.0901706601944441
-0.0115022600794128,-0.0878810976180563
-0.0219758928919131,-0.0137600038680556
-0.0501741350794125,0.0112155820694439
-0.0542024553919134,-0.034707269493056
-0.0687044085169123,-0.0919094179305564
-0.0864290178919134,0.0933933164444434
-0.125100892891912,0.00960425394444346
-0.108181947579413,-0.0274562929305563
-0.133157533516913,0.0982273008194437
-0.134768861641913,-0.0572658632430562
-0.140408510079413,0.142538824256943
-0.217752260079414,-0.134609613243056
-0.138797181954414,0.0587497617569438
-0.131546205391913,-0.032290277305556
-0.122683900704413,0.0297458555069434
-0.114627260079414,0.0281345273819441
-0.127517885079412,-0.00973168355555642
-0.127517885079413,0.0353855039444441
-0.0848176897669126,-0.0532375429305559
-0.0912630022669136,0.0402194883194435
-0.115432924141912,-0.0733791444930558
-0.100125306954414,0.140121832069444
-0.123489564766913,-0.176504144493056
-0.0872346819544137,0.192489996131944
-0.0936799944544129,0.0241062070694442
-0.0638704241419135,-0.010537347618056
-0.065481752266913,-0.0153713319930565
-0.0662874163294129,0.132870855506944
-0.0936799944544129,-0.133803949180556
-0.0268098772669131,0.132870855506944
-0.059036439766913,-0.018593988243056
-0.0372835100794136,0.0353855039444438
-0.0687044085169127,-0.0419582460555558
-0.0195589007044127,-0.00167504293055601
-0.0131135882044126,0.0257175351944436
0.00138836492058642,0.0458591367569437
-0.0243928850794127,0.010409918006944
0.0247526227330866,-0.104800042930556
0.0166959821080878,0.0861423398819442
0.0183073102330867,-0.100771722618056
0.000582700858087624,0.127231207069444
-0.00586261164191398,-0.0129543398055561
-0.0332551897669131,-0.00167504293055618
-0.0324495257044136,0.0506931211319439
-0.0332551897669131,-0.0790187929305562
-0.0227815569544131,0.0241062070694433
-0.0235872210169123,-0.0105373476180563
-0.0268098772669136,-0.0161769960555564
-0.0372835100794124,0.062778082069444
-0.0453401507044133,-0.0153713319930562
-0.0356721819544129,0.0732517148819441
-0.0397005022669137,-0.0669338319930562
-0.0509797991419128,-0.0419582460555561
-0.050979799141913,-0.105605706993056
-0.0155305803919126,0.013632574256944
-0.00425128351691331,-0.103994378868056
-0.0251985491419129,0.103866949256944
-0.00586261164191354,-0.0475978944930562
-0.0235872210169125,0.106283941444444
-0.00908526789191301,-0.116079339805556
-0.0195589007044125,-0.0145656679305558
-0.00586261164191362,-0.00892601949305652
-0.00425128351691317,-0.067739496055556
-0.00102862726691335,-0.0242336366805558
0.00622234929558724,-0.0475978944930562
0.0102506696080872,0.0112155820694441
-0.00666827570441244,-0.130581292930556
-0.0324495257044131,0.00396460550694393
-0.0654817522669126,-0.0572658632430563
-0.044534486641913,0.0353855039444438
-0.0380891741419124,-0.0419582460555564
0.0021940289830865,-0.0202053163680565
-0.0735383928919128,-0.0169826601180564
-0.0614534319544127,-0.116079339805556
-0.0340608538294132,0.0394138242569436
-0.0799837053919136,-0.033095941368056
-0.0348665178919133,-0.021010980430556
-0.00908526789191393,0.0112155820694435
-0.0533967913294126,0.0643894101944433
-0.0356721819544132,0.077280035194444
-0.0622590960169127,-0.129775628868056
-0.0429231585169128,-0.246596917930556
-0.0380891741419128,0.103866949256944
-0.0517854632044134,-0.0814357851180565
-0.0300325335169131,-6.37148055560251e-05
-0.0227815569544135,0.0257175351944437
-0.0243928850794128,-0.0798244569930563
-0.00344561945441382,-0.0790187929305563
0.024752622733087,-0.0717678163680564
-0.000222963204413482,0.010409918006944
0.010250669608087,-0.0741848085555567
-0.00263995539191293,-0.0790187929305561
0.00944500554558751,-0.136220941368056
0.0110563336705868,-0.0105373476180562
0.000582700858087016,-0.0653225038680565
-0.0243928850794131,-0.00409203511805624
-0.0106965960169124,-0.126552972618056
-0.000222963204413215,-0.0355129335555557
-0.0316438616419124,-0.0427639101180561
-0.0115022600794135,-0.00167504293055596
-0.0115022600794125,-0.0556545351180561
-0.0864290178919136,0.024911871131944
-0.0106965960169124,-0.0218166444930561
-0.0115022600794134,-0.0564601991805559
-0.0131135882044127,-0.116079339805557
0.0392545758580866,-0.0347072694930563
-0.0115022600794128,-0.0669338319930567
-0.0880403460169138,0.00960425394444397
-0.0123079241419131,-0.0226223085555564
0.000582700858086662,0.0893649961319434
-0.0235872210169131,-0.125747308555556
-0.0179475725794139,0.121591558631944
-0.0155305803919121,-0.112856683555556
-0.063064760079413,-0.0693508241805558
-0.0509797991419131,-0.058877191368056
-0.0332551897669138,-0.0226223085555561
-0.0163362444544124,-0.0532375429305559
-0.0477571428919131,-0.0709621523055564
-0.0115022600794127,-0.0814357851180563
0.00944500554558633,-0.0604885194930558
-0.0034456194544124,-0.0637111757430563
0.0199186383580869,-0.0266506288680564
0.0118619977330872,-0.215176019493057
0.027169614920587,-0.00167504293055586
0.0223356305455867,-0.141860589805556
0.0456998883580869,-0.00248070699305608
0.0481168805455867,-0.0894924257430561
0.0134733258580864,-0.0347072694930558
0.0295866071080873,-0.0637111757430563
0.0553678571080868,-0.193423089805556
0.0110563336705874,-0.0580715273055558
0.00461102117058648,-0.131386956993056
-0.0155305803919122,-0.184560785118056
-0.0147249163294129,-0.0927150819930559
0.0142789899205874,-0.124941644493056
0.0320035992955863,-0.161196527305556
0.0134733258580875,-0.0999660585555564
0.0199186383580869,-0.0790187929305564
0.0166959821080871,-0.162002191368057
0.0384489117955862,-0.168447503868056
0.0287809430455868,-0.104800042930556
-0.0171419085169132,-0.165224847618056
-0.0163362444544127,-0.229677972618056
-0.0115022600794136,-0.128969964805556
-0.0106965960169121,-0.197451410118056
-0.0123079241419128,-0.0935207460555561
-0.00505694757941296,-0.182143792930556
0.000582700858086711,-0.207925042930556
0.027169614920587,-0.110439691368056
-0.0219758928919137,-0.128164300743057
-0.00263995539191239,-0.226455316368056
0.0271696149205862,-0.150722894493056
0.0142789899205872,-0.0991603944930557
0.0247526227330862,-0.091909417930556
0.0424772321080872,-0.216787347618057
0.0610075055455871,-0.169253167930556
0.034420591483087,-0.203896722618056
0.0384489117955864,-0.159585199180556
0.0295866071080875,-0.176504144493056
0.064230161795587,-0.00167504293055591
0.0771207867955868,-0.0725734804305558
0.0706754742955873,-0.295742425743056
0.0658414899205878,-0.100771722618056
0.0424772321080865,-0.0766018007430559
0.0650358258580879,-0.147500238243056
0.052950864920586,-0.244179925743056
0.0400602399205876,0.0128269101944438
0.0295866071080864,-0.112856683555556
0.0489225446080879,-0.205508050743057
0.0448942242955866,-0.0999660585555564
0.0908170758580873,-0.170864496055556
0.0658414899205862,0.0337741758194439
0.0537565289830871,-0.200674066368056
0.0529508649205867,-0.0105373476180565
0.0585905133580869,-0.141054925743056
0.0424772321080863,-0.0193996523055561
0.0577848492955873,-0.171670160118056
0.0360319196080867,0.00396460550694382
0.0440885602330867,-0.168447503868056
-0.0106965960169136,-0.108022699180556
0.0456998883580878,-0.106411371055556
0.00622234929558617,-0.0717678163680562
0.0585905133580874,-0.0556545351180565
0.0360319196080869,-0.251430902305556
